20.300800080 608.0
20.902400240 676.0
21.504000401 683.0
22.105600561 627.0
22.707200721 657.0
23.308800881 635.0
23.910401042 638.0
24.512001202 627.0
25.113601362 630.0
25.715201522 575.0
26.316801683 567.0
26.918401843 593.0
27.520002003 617.0
28.121602164 620.0
28.723202324 601.0
29.324802484 773.0
29.926402644 641.0
30.528002805 658.0
31.129602965 676.0
31.731203125 726.0
32.332803286 647.0
32.934403446 675.0
33.536003606 670.0
34.137603766 785.0
34.739203927 922.0
35.340804087 792.0
35.942404247 986.0
36.544004407 1481.0
37.145604568 2746.0
37.747204728 12398.0
38.348804888 9060.0
38.950405049 1646.0
39.552005209 1031.0
40.153605369 911.0
40.755205529 795.0
41.356805690 821.0
41.958405850 788.0
42.560006010 737.0
43.161606170 801.0
43.763206331 785.0
44.364806491 772.0
44.966406651 712.0
45.568006812 746.0
46.169606972 712.0
46.771207132 725.0
47.372807292 797.0
47.974407453 851.0
48.576007613 797.0
49.177607773 620.0
49.779207934 723.0
50.380808094 722.0
50.982408254 737.0
51.584008414 800.0
52.185608575 830.0
52.787208735 900.0
53.388808895 943.0
53.990409055 1598.0
54.592009216 3215.0
55.193609376 2541.0
55.795209536 1092.0
56.396809697 1010.0
56.998409857 1076.0
57.600010017 1040.0
58.201610177 918.0
58.803210338 937.0
59.404810498 923.0
60.006410658 1120.0
60.608010819 1036.0
61.209610979 1270.0
61.811211139 1073.0
62.412811299 1373.0
63.014411460 1145.0
63.616011620 1360.0
64.217611780 1285.0
64.819211940 1421.0
65.420812101 1421.0
66.022412261 1455.0
66.624012421 1591.0
67.225612582 1867.0
67.827212742 3191.0
68.428812902 4257.0
69.030413062 4265.0
69.632013223 2007.0
70.233613383 1863.0
70.835213543 1531.0
71.436813703 1631.0
72.038413864 1667.0
72.640014024 1806.0
73.241614184 1652.0
73.843214345 1660.0
74.444814505 1688.0
75.046414665 1425.0
75.648014825 1988.0
76.249614986 1538.0
76.851215146 1935.0
77.452815306 1677.0
78.054415467 1732.0
78.656015627 1868.0
79.257615787 2197.0
79.859215947 2152.0
80.460816108 2729.0
81.062416268 3411.0
81.664016428 2934.0
82.265616588 2532.0
82.867216749 1932.0
83.468816909 2117.0
84.070417069 1898.0
84.672017230 1977.0
85.273617390 2042.0
85.875217550 2185.0
86.476817710 1851.0
87.078417871 2040.0
87.680018031 1950.0
88.281618191 1932.0
88.883218351 2366.0
89.484818512 2106.0
90.086418672 2177.0
90.688018832 2198.0
91.289618993 2461.0
91.891219153 2852.0
92.492819313 3770.0
93.094419473 4189.0
93.696019634 4207.0
94.297619794 3157.0
94.899219954 2687.0
95.500820115 2796.0
96.102420275 2497.0
96.704020435 2378.0
97.305620595 2495.0
97.907220756 2391.0
98.508820916 2554.0
99.110421076 2740.0
99.712021236 2469.0
100.313621397 2605.0
100.915221557 2506.0
101.516821717 2517.0
102.118421878 2832.0
102.720022038 2761.0
103.321622198 2621.0
103.923222358 2722.0
104.524822519 2895.0
105.126422679 3131.0
105.728022839 3500.0
106.329623000 3025.0
106.931223160 2841.0
107.532823320 2772.0
108.134423480 2916.0
108.736023641 3195.0
109.337623801 3129.0
109.939223961 3006.0
110.540824121 2914.0
111.142424282 3104.0
111.744024442 3287.0
112.345624602 3580.0
112.947224763 3150.0
113.548824923 3214.0
114.150425083 3362.0
114.752025243 3662.0
115.353625404 4101.0
115.955225564 3902.0
116.556825724 4189.0
117.158425884 4257.0
117.760026045 4702.0
118.361626205 5605.0
118.963226365 6160.0
119.564826526 5258.0
120.166426686 4396.0
120.768026846 4047.0
121.369627006 4002.0
121.971227167 4490.0
122.572827327 4239.0
123.174427487 4041.0
123.776027648 3741.0
124.377627808 4275.0
124.979227968 4271.0
125.580828128 4642.0
126.182428289 4150.0
126.784028449 3976.0
127.385628609 4040.0
127.987228769 4359.0
128.588828930 4833.0
129.190429090 4666.0
