30.054778170 614.0
30.138334501 578.0
30.221890831 616.0
30.305447162 614.0
30.389003493 607.0
30.472559823 654.0
30.556116154 590.0
30.639672485 569.0
30.723228815 599.0
30.806785146 648.0
30.890341477 647.0
30.973897807 639.0
31.057454138 564.0
31.141010469 672.0
31.224566799 703.0
31.308123130 669.0
31.391679461 670.0
31.475235791 665.0
31.558792122 827.0
31.642348453 861.0
31.725904783 858.0
31.809461114 813.0
31.893017445 722.0
31.976573775 629.0
32.060130106 632.0
32.143686437 604.0
32.227242767 645.0
32.310799098 623.0
32.394355429 634.0
32.477911759 592.0
32.561468090 609.0
32.645024421 642.0
32.728580751 728.0
32.812137082 618.0
32.895693413 677.0
32.979249743 615.0
33.062806074 655.0
33.146362405 632.0
33.229918735 623.0
33.313475066 667.0
33.397031397 598.0
33.480587727 657.0
33.564144058 675.0
33.647700389 646.0
33.731256719 677.0
33.814813050 717.0
33.898369381 633.0
33.981925711 799.0
34.065482042 797.0
34.149038373 798.0
34.232594703 835.0
34.316151034 896.0
34.399707365 834.0
34.483263695 811.0
34.566820026 713.0
34.650376357 794.0
34.733932687 784.0
34.817489018 745.0
34.901045349 708.0
34.984601680 670.0
35.068158010 686.0
35.151714341 710.0
35.235270672 694.0
35.318827002 723.0
35.402383333 763.0
35.485939664 860.0
35.569495994 913.0
35.653052325 860.0
35.736608656 807.0
35.820164986 721.0
35.903721317 717.0
35.987277648 704.0
36.070833978 708.0
36.154390309 722.0
36.237946640 737.0
36.321502970 717.0
36.405059301 793.0
36.488615632 860.0
36.572171962 834.0
36.655728293 924.0
36.739284624 930.0
36.822840954 931.0
36.906397285 1033.0
36.989953616 1074.0
37.073509946 1221.0
37.157066277 1275.0
37.240622608 1420.0
37.324178938 1688.0
37.407735269 2037.0
37.491291600 2434.0
37.574847930 2889.0
37.658404261 3348.0
37.741960592 4166.0
37.825516922 4754.0
37.909073253 5272.0
37.992629584 5399.0
38.076185914 5363.0
38.159742245 5212.0
38.243298576 4894.0
38.326854906 4154.0
38.410411237 3676.0
38.493967568 3074.0
38.577523898 2712.0
38.661080229 2351.0
38.744636560 2177.0
38.828192890 2102.0
38.911749221 2054.0
38.995305552 2085.0
39.078861882 2363.0
39.162418213 2849.0
39.245974544 3429.0
39.329530874 3906.0
39.413087205 4173.0
39.496643536 4256.0
39.580199866 3792.0
39.663756197 3243.0
39.747312528 2772.0
39.830868858 2143.0
39.914425189 1806.0
39.997981520 1487.0
40.081537850 1314.0
40.165094181 1165.0
40.248650512 1043.0
40.332206842 1030.0
40.415763173 893.0
40.499319504 848.0
40.582875834 762.0
40.666432165 774.0
40.749988496 763.0
40.833544826 847.0
40.917101157 811.0
41.000657488 838.0
41.084213818 796.0
41.167770149 711.0
41.251326480 709.0
41.334882810 681.0
41.418439141 691.0
41.501995472 658.0
41.585551802 719.0
41.669108133 639.0
41.752664464 658.0
41.836220794 645.0
41.919777125 650.0
42.003333456 634.0
42.086889786 636.0
42.170446117 679.0
42.254002448 617.0
42.337558778 621.0
42.421115109 589.0
42.504671440 604.0
42.588227770 584.0
42.671784101 590.0
42.755340432 634.0
42.838896762 609.0
42.922453093 615.0
43.006009424 586.0
43.089565754 596.0
43.173122085 609.0
43.256678416 607.0
43.340234746 585.0
43.423791077 545.0
43.507347408 643.0
43.590903738 615.0
43.674460069 606.0
43.758016400 644.0
43.841572730 609.0
43.925129061 568.0
44.008685392 571.0
44.092241722 525.0
44.175798053 585.0
44.259354384 541.0
44.342910715 557.0
44.426467045 631.0
44.510023376 578.0
44.593579707 560.0
44.677136037 666.0
44.760692368 579.0
44.844248699 567.0
44.927805029 554.0
45.011361360 585.0
45.094917691 581.0
45.178474021 668.0
45.262030352 598.0
45.345586683 575.0
45.429143013 632.0
45.512699344 628.0
45.596255675 568.0
45.679812005 616.0
45.763368336 565.0
45.846924667 628.0
45.930480997 531.0
46.014037328 566.0
46.097593659 580.0
46.181149989 579.0
46.264706320 584.0
46.348262651 604.0
46.431818981 578.0
46.515375312 564.0
46.598931643 612.0
46.682487973 577.0
46.766044304 630.0
46.849600635 586.0
46.933156965 560.0
47.016713296 542.0
47.100269627 597.0
47.183825957 602.0
47.267382288 593.0
47.350938619 554.0
47.434494949 565.0
47.518051280 608.0
47.601607611 534.0
47.685163941 571.0
47.768720272 579.0
47.852276603 622.0
47.935832933 565.0
48.019389264 605.0
48.102945595 623.0
48.186501925 629.0
48.270058256 576.0
48.353614587 533.0
48.437170917 555.0
48.520727248 591.0
48.604283579 596.0
48.687839909 654.0
48.771396240 622.0
48.854952571 579.0
48.938508901 631.0
49.022065232 612.0
49.105621563 602.0
49.189177893 630.0
49.272734224 650.0
49.356290555 628.0
49.439846885 635.0
49.523403216 682.0
49.606959547 685.0
49.690515877 633.0
49.774072208 618.0
49.857628539 637.0
49.941184869 627.0
50.024741200 641.0
50.108297531 626.0
50.191853861 628.0
50.275410192 669.0
50.358966523 688.0
50.442522853 741.0
50.526079184 726.0
50.609635515 699.0
50.693191845 712.0
50.776748176 644.0
50.860304507 677.0
50.943860837 617.0
51.027417168 675.0
51.110973499 677.0
51.194529829 673.0
51.278086160 645.0
51.361642491 663.0
51.445198821 684.0
51.528755152 674.0
51.612311483 674.0
51.695867813 653.0
51.779424144 674.0
51.862980475 682.0
51.946536805 660.0
52.030093136 657.0
52.113649467 697.0
52.197205797 700.0
52.280762128 692.0
52.364318459 663.0
52.447874789 648.0
52.531431120 639.0
52.614987451 735.0
52.698543781 688.0
52.782100112 767.0
52.865656443 686.0
52.949212773 790.0
53.032769104 844.0
53.116325435 789.0
53.199881765 814.0
53.283438096 885.0
53.366994427 909.0
53.450550757 950.0
53.534107088 982.0
53.617663419 1002.0
53.701219749 1093.0
53.784776080 1199.0
53.868332411 1313.0
53.951888742 1485.0
54.035445072 1624.0
54.119001403 1896.0
54.202557734 2268.0
54.286114064 2619.0
54.369670395 3105.0
54.453226726 3572.0
54.536783056 4172.0
54.620339387 4543.0
54.703895718 5178.0
54.787452048 5462.0
54.871008379 5583.0
54.954564710 5424.0
55.038121040 5245.0
55.121677371 4892.0
55.205233702 4335.0
55.288790032 3822.0
55.372346363 3249.0
55.455902694 2785.0
55.539459024 2347.0
55.623015355 2186.0
55.706571686 1917.0
55.790128016 1735.0
55.873684347 1693.0
55.957240678 1569.0
56.040797008 1581.0
56.124353339 1572.0
56.207909670 1537.0
56.291466000 1546.0
56.375022331 1616.0
56.458578662 1730.0
56.542134992 2025.0
56.625691323 2261.0
56.709247654 2629.0
56.792803984 3131.0
56.876360315 3670.0
56.959916646 3999.0
57.043472976 3991.0
57.127029307 3489.0
57.210585638 2832.0
57.294141968 2265.0
57.377698299 1840.0
57.461254630 1606.0
57.544810960 1398.0
57.628367291 1294.0
57.711923622 1206.0
57.795479952 1127.0
57.879036283 1113.0
57.962592614 1056.0
58.046148944 997.0
58.129705275 1010.0
58.213261606 1035.0
58.296817936 1079.0
58.380374267 1017.0
58.463930598 978.0
58.547486928 1004.0
58.631043259 992.0
58.714599590 997.0
58.798155920 1019.0
58.881712251 960.0
58.965268582 918.0
59.048824912 967.0
59.132381243 941.0
59.215937574 953.0
59.299493904 984.0
59.383050235 966.0
59.466606566 924.0
59.550162896 908.0
59.633719227 981.0
59.717275558 998.0
59.800831888 1001.0
59.884388219 969.0
59.967944550 943.0
60.051500880 1001.0
60.135057211 1006.0
60.218613542 1031.0
60.302169872 1099.0
60.385726203 1031.0
60.469282534 1020.0
60.552838864 1056.0
60.636395195 1066.0
60.719951526 1010.0
60.803507856 964.0
60.887064187 968.0
60.970620518 972.0
61.054176848 1091.0
61.137733179 1071.0
61.221289510 982.0
61.304845840 1092.0
61.388402171 1043.0
61.471958502 1110.0
61.555514832 1113.0
61.639071163 1169.0
61.722627494 1052.0
61.806183824 1043.0
61.889740155 1133.0
61.973296486 1142.0
62.056852816 1131.0
62.140409147 1089.0
62.223965478 1101.0
62.307521808 1138.0
62.391078139 1216.0
62.474634470 1212.0
62.558190800 1146.0
62.641747131 1116.0
62.725303462 1144.0
62.808859792 1209.0
62.892416123 1182.0
62.975972454 1220.0
63.059528784 1262.0
63.143085115 1170.0
63.226641446 1281.0
63.310197777 1275.0
63.393754107 1236.0
63.477310438 1171.0
63.560866769 1215.0
63.644423099 1231.0
63.727979430 1221.0
63.811535761 1262.0
63.895092091 1208.0
63.978648422 1184.0
64.062204753 1291.0
64.145761083 1253.0
64.229317414 1268.0
64.312873745 1384.0
64.396430075 1368.0
64.479986406 1389.0
64.563542737 1370.0
64.647099067 1451.0
64.730655398 1316.0
64.814211729 1323.0
64.897768059 1284.0
64.981324390 1307.0
65.064880721 1288.0
65.148437051 1253.0
65.231993382 1269.0
65.315549713 1262.0
65.399106043 1235.0
65.482662374 1229.0
65.566218705 1348.0
65.649775035 1304.0
65.733331366 1368.0
65.816887697 1343.0
65.900444027 1362.0
65.984000358 1410.0
66.067556689 1399.0
66.151113019 1408.0
66.234669350 1411.0
66.318225681 1324.0
66.401782011 1424.0
66.485338342 1346.0
66.568894673 1459.0
66.652451003 1337.0
66.736007334 1384.0
66.819563665 1378.0
66.903119995 1390.0
66.986676326 1445.0
67.070232657 1337.0
67.153788987 1482.0
67.237345318 1422.0
67.320901649 1476.0
67.404457979 1542.0
67.488014310 1592.0
67.571570641 1632.0
67.655126971 1662.0
67.738683302 1772.0
67.822239633 1795.0
67.905795963 1888.0
67.989352294 1808.0
68.072908625 2036.0
68.156464955 2068.0
68.240021286 2067.0
68.323577617 2161.0
68.407133947 2152.0
68.490690278 2147.0
68.574246609 2218.0
68.657802939 2213.0
68.741359270 2233.0
68.824915601 2186.0
68.908471931 2155.0
68.992028262 2065.0
69.075584593 2124.0
69.159140923 2044.0
69.242697254 1913.0
69.326253585 1854.0
69.409809915 1849.0
69.493366246 1821.0
69.576922577 1751.0
69.660478907 1754.0
69.744035238 1703.0
69.827591569 1712.0
69.911147899 1716.0
69.994704230 1703.0
70.078260561 1739.0
70.161816891 1591.0
70.245373222 1640.0
70.328929553 1706.0
70.412485883 1713.0
70.496042214 1686.0
70.579598545 1702.0
70.663154875 1750.0
70.746711206 1785.0
70.830267537 1792.0
70.913823867 1916.0
70.997380198 2000.0
71.080936529 2085.0
71.164492859 2146.0
71.248049190 2163.0
71.331605521 2305.0
71.415161851 2374.0
71.498718182 2356.0
71.582274513 2319.0
71.665830843 2389.0
71.749387174 2241.0
71.832943505 2185.0
71.916499835 2075.0
72.000056166 2057.0
72.083612497 1897.0
72.167168827 1904.0
72.250725158 1858.0
72.334281489 1810.0
72.417837819 1767.0
72.501394150 1707.0
72.584950481 1754.0
72.668506811 1628.0
72.752063142 1654.0
72.835619473 1646.0
72.919175804 1630.0
73.002732134 1639.0
73.086288465 1630.0
73.169844796 1663.0
73.253401126 1543.0
73.336957457 1657.0
73.420513788 1586.0
73.504070118 1590.0
73.587626449 1610.0
73.671182780 1557.0
73.754739110 1608.0
73.838295441 1563.0
73.921851772 1611.0
74.005408102 1658.0
74.088964433 1523.0
74.172520764 1554.0
74.256077094 1591.0
74.339633425 1530.0
74.423189756 1604.0
74.506746086 1594.0
74.590302417 1534.0
74.673858748 1573.0
74.757415078 1669.0
74.840971409 1620.0
74.924527740 1642.0
75.008084070 1648.0
75.091640401 1606.0
75.175196732 1705.0
75.258753062 1640.0
75.342309393 1697.0
75.425865724 1629.0
75.509422054 1655.0
75.592978385 1600.0
75.676534716 1668.0
75.760091046 1693.0
75.843647377 1679.0
75.927203708 1654.0
76.010760038 1669.0
76.094316369 1664.0
76.177872700 1710.0
76.261429030 1691.0
76.344985361 1618.0
76.428541692 1626.0
76.512098022 1695.0
76.595654353 1667.0
76.679210684 1703.0
76.762767014 1633.0
76.846323345 1729.0
76.929879676 1662.0
77.013436006 1748.0
77.096992337 1757.0
77.180548668 1601.0
77.264104998 1771.0
77.347661329 1680.0
77.431217660 1699.0
77.514773990 1744.0
77.598330321 1624.0
77.681886652 1707.0
77.765442982 1663.0
77.848999313 1722.0
77.932555644 1794.0
78.016111974 1699.0
78.099668305 1627.0
78.183224636 1739.0
78.266780966 1731.0
78.350337297 1706.0
78.433893628 1759.0
78.517449958 1686.0
78.601006289 1802.0
78.684562620 1757.0
78.768118950 1781.0
78.851675281 1831.0
78.935231612 1793.0
79.018787942 1785.0
79.102344273 1732.0
79.185900604 1838.0
79.269456934 1830.0
79.353013265 1771.0
79.436569596 1853.0
79.520125926 1921.0
79.603682257 1840.0
79.687238588 1958.0
79.770794918 1960.0
79.854351249 1991.0
79.937907580 1939.0
80.021463910 2038.0
80.105020241 2042.0
80.188576572 2020.0
80.272132902 2071.0
80.355689233 2004.0
80.439245564 2041.0
80.522801894 1997.0
80.606358225 2121.0
80.689914556 1948.0
80.773470886 2129.0
80.857027217 2110.0
80.940583548 2054.0
81.024139878 2164.0
81.107696209 2208.0
81.191252540 2167.0
81.274808870 2154.0
81.358365201 2138.0
81.441921532 2104.0
81.525477862 2223.0
81.609034193 2146.0
81.692590524 2133.0
81.776146854 2231.0
81.859703185 2140.0
81.943259516 2237.0
82.026815846 2032.0
82.110372177 2144.0
82.193928508 2062.0
82.277484839 1977.0
82.361041169 2061.0
82.444597500 2074.0
82.528153831 2002.0
82.611710161 2026.0
82.695266492 2022.0
82.778822823 1978.0
82.862379153 2016.0
82.945935484 2010.0
83.029491815 1917.0
83.113048145 1933.0
83.196604476 1984.0
83.280160807 1937.0
83.363717137 2004.0
83.447273468 2023.0
83.530829799 2015.0
83.614386129 1930.0
83.697942460 1972.0
83.781498791 1912.0
83.865055121 2037.0
83.948611452 2009.0
84.032167783 2053.0
84.115724113 2105.0
84.199280444 2063.0
84.282836775 2062.0
84.366393105 2126.0
84.449949436 2139.0
84.533505767 2229.0
84.617062097 2244.0
84.700618428 2176.0
84.784174759 2244.0
84.867731089 2278.0
84.951287420 2289.0
85.034843751 2306.0
85.118400081 2221.0
85.201956412 2050.0
85.285512743 2201.0
85.369069073 2210.0
85.452625404 2125.0
85.536181735 2112.0
85.619738065 2049.0
85.703294396 2025.0
85.786850727 2104.0
85.870407057 2125.0
85.953963388 1933.0
86.037519719 1989.0
86.121076049 1974.0
86.204632380 2028.0
86.288188711 2072.0
86.371745041 2068.0
86.455301372 1952.0
86.538857703 1978.0
86.622414033 1964.0
86.705970364 1956.0
86.789526695 2102.0
86.873083025 1936.0
86.956639356 2080.0
87.040195687 1962.0
87.123752017 1955.0
87.207308348 2064.0
87.290864679 1937.0
87.374421009 1953.0
87.457977340 1983.0
87.541533671 1985.0
87.625090001 2152.0
87.708646332 2040.0
87.792202663 1987.0
87.875758993 2077.0
87.959315324 2019.0
88.042871655 2027.0
88.126427985 2040.0
88.209984316 2065.0
88.293540647 2062.0
88.377096977 2059.0
88.460653308 2101.0
88.544209639 2032.0
88.627765969 2035.0
88.711322300 2064.0
88.794878631 2101.0
88.878434961 2118.0
88.961991292 2080.0
89.045547623 2098.0
89.129103953 2130.0
89.212660284 2258.0
89.296216615 2085.0
89.379772945 2137.0
89.463329276 2133.0
89.546885607 2104.0
89.630441937 2125.0
89.713998268 2181.0
89.797554599 2099.0
89.881110929 2176.0
89.964667260 2129.0
90.048223591 2068.0
90.131779921 2165.0
90.215336252 2133.0
90.298892583 2133.0
90.382448913 2147.0
90.466005244 2206.0
90.549561575 2264.0
90.633117905 2239.0
90.716674236 2253.0
90.800230567 2224.0
90.883786897 2312.0
90.967343228 2343.0
91.050899559 2351.0
91.134455889 2352.0
91.218012220 2305.0
91.301568551 2317.0
91.385124881 2403.0
91.468681212 2454.0
91.552237543 2367.0
91.635793873 2347.0
91.719350204 2368.0
91.802906535 2373.0
91.886462866 2570.0
91.970019196 2522.0
92.053575527 2469.0
92.137131858 2402.0
92.220688188 2636.0
92.304244519 2607.0
92.387800850 2651.0
92.471357180 2774.0
92.554913511 2719.0
92.638469842 2755.0
92.722026172 2832.0
92.805582503 2928.0
92.889138834 2790.0
92.972695164 2921.0
93.056251495 2861.0
93.139807826 2913.0
93.223364156 3072.0
93.306920487 2972.0
93.390476818 3022.0
93.474033148 2889.0
93.557589479 3035.0
93.641145810 2995.0
93.724702140 3048.0
93.808258471 3000.0
93.891814802 2880.0
93.975371132 2967.0
94.058927463 2895.0
94.142483794 2839.0
94.226040124 2877.0
94.309596455 2746.0
94.393152786 2820.0
94.476709116 2846.0
94.560265447 2761.0
94.643821778 2729.0
94.727378108 2637.0
94.810934439 2586.0
94.894490770 2665.0
94.978047100 2617.0
95.061603431 2535.0
95.145159762 2602.0
95.228716092 2431.0
95.312272423 2608.0
95.395828754 2628.0
95.479385084 2591.0
95.562941415 2478.0
95.646497746 2576.0
95.730054076 2517.0
95.813610407 2549.0
95.897166738 2612.0
95.980723068 2584.0
96.064279399 2487.0
96.147835730 2570.0
96.231392060 2620.0
96.314948391 2594.0
96.398504722 2584.0
96.482061052 2633.0
96.565617383 2690.0
96.649173714 2652.0
96.732730044 2795.0
96.816286375 2804.0
96.899842706 2690.0
96.983399036 2820.0
97.066955367 2850.0
97.150511698 2861.0
97.234068028 2946.0
97.317624359 3085.0
97.401180690 3030.0
97.484737020 3093.0
97.568293351 3087.0
97.651849682 3278.0
97.735406012 3245.0
97.818962343 3089.0
97.902518674 3138.0
97.986075004 3284.0
98.069631335 3029.0
98.153187666 3105.0
98.236743996 2957.0
98.320300327 2885.0
98.403856658 3035.0
98.487412988 2884.0
98.570969319 2877.0
98.654525650 2804.0
98.738081980 2753.0
98.821638311 2671.0
98.905194642 2700.0
98.988750972 2666.0
99.072307303 2705.0
99.155863634 2704.0
99.239419964 2705.0
99.322976295 2754.0
99.406532626 2570.0
99.490088956 2702.0
99.573645287 2626.0
99.657201618 2641.0
99.740757948 2703.0
99.824314279 2661.0
99.907870610 2636.0
99.991426940 2624.0
100.074983271 2655.0
100.158539602 2562.0
100.242095932 2588.0
100.325652263 2668.0
100.409208594 2646.0
100.492764924 2607.0
100.576321255 2710.0
100.659877586 2580.0
100.743433916 2646.0
100.826990247 2685.0
100.910546578 2647.0
100.994102908 2746.0
101.077659239 2660.0
101.161215570 2601.0
101.244771901 2545.0
101.328328231 2708.0
101.411884562 2612.0
101.495440893 2701.0
101.578997223 2678.0
101.662553554 2736.0
101.746109885 2689.0
101.829666215 2723.0
101.913222546 2700.0
101.996778877 2673.0
102.080335207 2712.0
102.163891538 2736.0
102.247447869 2660.0
102.331004199 2753.0
102.414560530 2698.0
102.498116861 2772.0
102.581673191 2729.0
102.665229522 2847.0
102.748785853 2750.0
102.832342183 2737.0
102.915898514 2713.0
102.999454845 2710.0
103.083011175 2661.0
103.166567506 2763.0
103.250123837 2725.0
103.333680167 2634.0
103.417236498 2767.0
103.500792829 2840.0
103.584349159 2715.0
103.667905490 2729.0
103.751461821 2716.0
103.835018151 2920.0
103.918574482 2796.0
104.002130813 2760.0
104.085687143 2782.0
104.169243474 2766.0
104.252799805 2925.0
104.336356135 2925.0
104.419912466 2764.0
104.503468797 2928.0
104.587025127 3066.0
104.670581458 2903.0
104.754137789 2979.0
104.837694119 2895.0
104.921250450 2914.0
105.004806781 2814.0
105.088363111 2846.0
105.171919442 2957.0
105.255475773 2989.0
105.339032103 2926.0
105.422588434 2769.0
105.506144765 2930.0
105.589701095 3006.0
105.673257426 2843.0
105.756813757 2933.0
105.840370087 3012.0
105.923926418 2952.0
106.007482749 2915.0
106.091039079 2871.0
106.174595410 2921.0
106.258151741 2787.0
106.341708071 2962.0
106.425264402 2876.0
106.508820733 2914.0
106.592377063 2932.0
106.675933394 3056.0
106.759489725 2972.0
106.843046055 2938.0
106.926602386 2944.0
107.010158717 2982.0
107.093715047 2855.0
107.177271378 3053.0
107.260827709 2888.0
107.344384039 2885.0
107.427940370 3020.0
107.511496701 2907.0
107.595053031 2964.0
107.678609362 3002.0
107.762165693 2987.0
107.845722023 3120.0
107.929278354 2958.0
108.012834685 2944.0
108.096391015 2984.0
108.179947346 2929.0
108.263503677 2972.0
108.347060007 3002.0
108.430616338 2989.0
108.514172669 2945.0
108.597728999 3092.0
108.681285330 3094.0
108.764841661 3050.0
108.848397991 3152.0
108.931954322 3101.0
109.015510653 3055.0
109.099066983 3076.0
109.182623314 3079.0
109.266179645 3011.0
109.349735975 3091.0
109.433292306 3059.0
109.516848637 3126.0
109.600404967 3202.0
109.683961298 3181.0
109.767517629 3124.0
109.851073959 3071.0
109.934630290 3366.0
110.018186621 3257.0
110.101742951 3148.0
110.185299282 3165.0
110.268855613 3017.0
110.352411943 3255.0
110.435968274 3325.0
110.519524605 3301.0
110.603080935 3123.0
110.686637266 3235.0
110.770193597 3277.0
110.853749928 3263.0
110.937306258 3228.0
111.020862589 3253.0
111.104418920 3236.0
111.187975250 3308.0
111.271531581 3338.0
111.355087912 3296.0
111.438644242 3312.0
111.522200573 3279.0
111.605756904 3293.0
111.689313234 3460.0
111.772869565 3378.0
111.856425896 3362.0
111.939982226 3396.0
112.023538557 3314.0
112.107094888 3341.0
112.190651218 3345.0
112.274207549 3287.0
112.357763880 3396.0
112.441320210 3388.0
112.524876541 3381.0
112.608432872 3364.0
112.691989202 3394.0
112.775545533 3259.0
112.859101864 3394.0
112.942658194 3418.0
113.026214525 3412.0
113.109770856 3400.0
113.193327186 3390.0
113.276883517 3392.0
113.360439848 3400.0
113.443996178 3493.0
113.527552509 3506.0
113.611108840 3386.0
113.694665170 3529.0
113.778221501 3579.0
113.861777832 3529.0
113.945334162 3610.0
114.028890493 3478.0
114.112446824 3467.0
114.196003154 3549.0
114.279559485 3609.0
114.363115816 3638.0
114.446672146 3544.0
114.530228477 3723.0
114.613784808 3674.0
114.697341138 3667.0
114.780897469 3766.0
114.864453800 3762.0
114.948010130 3594.0
115.031566461 3634.0
115.115122792 3605.0
115.198679122 3709.0
115.282235453 3689.0
115.365791784 3663.0
115.449348114 3621.0
115.532904445 3709.0
115.616460776 3709.0
115.700017106 3684.0
115.783573437 3587.0
115.867129768 3623.0
115.950686098 3740.0
116.034242429 3612.0
116.117798760 3682.0
116.201355090 3684.0
116.284911421 3744.0
116.368467752 3710.0
116.452024082 3772.0
116.535580413 3776.0
116.619136744 3856.0
116.702693074 3762.0
116.786249405 3664.0
116.869805736 3838.0
116.953362066 3798.0
117.036918397 3841.0
117.120474728 3875.0
117.204031058 3892.0
117.287587389 4052.0
117.371143720 4046.0
117.454700050 4108.0
117.538256381 4039.0
117.621812712 4003.0
117.705369042 4226.0
117.788925373 4159.0
117.872481704 4311.0
117.956038034 4268.0
118.039594365 4349.0
118.123150696 4321.0
118.206707026 4473.0
118.290263357 4369.0
118.373819688 4460.0
118.457376018 4327.0
118.540932349 4364.0
118.624488680 4582.0
118.708045010 4630.0
118.791601341 4625.0
118.875157672 4620.0
118.958714002 4655.0
119.042270333 4768.0
119.125826664 4940.0
119.209382994 4857.0
119.292939325 4816.0
119.376495656 4998.0
119.460051986 5081.0
119.543608317 5085.0
119.627164648 5109.0
119.710720978 5180.0
119.794277309 5126.0
119.877833640 5204.0
119.961389970 5197.0
120.044946301 5160.0
120.128502632 5187.0
120.212058963 4962.0
120.295615293 5084.0
120.379171624 5110.0
120.462727955 4882.0
120.546284285 4823.0
120.629840616 4869.0
120.713396947 4715.0
120.796953277 4461.0
120.880509608 4580.0
120.964065939 4540.0
121.047622269 4545.0
121.131178600 4577.0
121.214734931 4352.0
121.298291261 4501.0
121.381847592 4462.0
121.465403923 4330.0
121.548960253 4319.0
121.632516584 4453.0
121.716072915 4399.0
121.799629245 4382.0
121.883185576 4420.0
121.966741907 4378.0
122.050298237 4377.0
122.133854568 4348.0
122.217410899 4317.0
122.300967229 4323.0
122.384523560 4197.0
122.468079891 4399.0
122.551636221 4397.0
122.635192552 4256.0
122.718748883 4399.0
122.802305213 4377.0
122.885861544 4290.0
122.969417875 4392.0
123.052974205 4293.0
123.136530536 4416.0
123.220086867 4363.0
123.303643197 4311.0
123.387199528 4391.0
123.470755859 4575.0
123.554312189 4433.0
123.637868520 4456.0
123.721424851 4509.0
123.804981181 4577.0
123.888537512 4468.0
123.972093843 4549.0
124.055650173 4524.0
124.139206504 4606.0
124.222762835 4565.0
124.306319165 4604.0
124.389875496 4512.0
124.473431827 4647.0
124.556988157 4653.0
124.640544488 4670.0
124.724100819 4718.0
124.807657149 4713.0
124.891213480 4794.0
