10.250667440 630.0
10.752002314 612.0
11.253337188 548.0
11.754672063 578.0
12.256006937 547.0
12.757341811 518.0
13.258676685 609.0
13.760011560 640.0
14.261346434 578.0
14.762681308 619.0
15.264016182 584.0
15.765351057 579.0
16.266685931 577.0
16.768020805 614.0
17.269355679 572.0
17.770690554 543.0
18.272025428 600.0
18.773360302 631.0
19.274695176 659.0
19.776030051 615.0
20.277364925 606.0
20.778699799 581.0
21.280034673 581.0
21.781369548 636.0
22.282704422 610.0
22.784039296 643.0
23.285374170 640.0
23.786709045 643.0
24.288043919 609.0
24.789378793 619.0
25.290713667 683.0
25.792048542 603.0
26.293383416 579.0
26.794718290 636.0
27.296053164 636.0
27.797388039 668.0
28.298722913 638.0
28.800057787 624.0
29.301392661 647.0
29.802727536 662.0
30.304062410 660.0
30.805397284 607.0
31.306732158 633.0
31.808067032 644.0
32.309401907 730.0
32.810736781 718.0
33.312071655 681.0
33.813406529 713.0
34.314741404 715.0
34.816076278 701.0
35.317411152 743.0
35.818746026 707.0
36.320080901 716.0
36.821415775 809.0
37.322750649 866.0
37.824085523 1179.0
38.325420398 2147.0
38.826755272 10471.0
39.328090146 8489.0
39.829425020 1943.0
40.330759895 1109.0
40.832094769 998.0
41.333429643 856.0
41.834764517 807.0
42.336099392 825.0
42.837434266 756.0
43.338769140 795.0
43.840104014 768.0
44.341438889 797.0
44.842773763 791.0
45.344108637 783.0
45.845443511 765.0
46.346778386 739.0
46.848113260 731.0
47.349448134 745.0
47.850783008 765.0
48.352117883 722.0
48.853452757 806.0
49.354787631 783.0
49.856122505 798.0
50.357457379 827.0
50.858792254 808.0
51.360127128 868.0
51.861462002 810.0
52.362796876 820.0
52.864131751 844.0
53.365466625 843.0
53.866801499 956.0
54.368136373 971.0
54.869471248 1067.0
55.370806122 1268.0
55.872140996 2792.0
56.373475870 18130.0
56.874810745 3685.0
57.376145619 1330.0
57.877480493 1215.0
58.378815367 1118.0
58.880150242 1092.0
59.381485116 1257.0
59.882819990 1057.0
60.384154864 1247.0
60.885489739 1122.0
61.386824613 1169.0
61.888159487 1200.0
62.389494361 1292.0
62.890829236 1262.0
63.392164110 1289.0
63.893498984 1342.0
64.394833858 1166.0
64.896168733 1559.0
65.397503607 1342.0
65.898838481 1557.0
66.400173355 1453.0
66.901508230 1407.0
67.402843104 1737.0
67.904177978 1453.0
68.405512852 1691.0
68.906847727 1679.0
69.408182601 1944.0
69.909517475 2779.0
70.410852349 4520.0
70.912187223 3965.0
71.413522098 2327.0
71.914856972 1949.0
72.416191846 1851.0
72.917526720 1869.0
73.418861595 1761.0
73.920196469 1666.0
74.421531343 1775.0
74.922866217 1689.0
75.424201092 1953.0
75.925535966 1814.0
76.426870840 1866.0
76.928205714 1819.0
77.429540589 1767.0
77.930875463 2066.0
78.432210337 1722.0
78.933545211 1874.0
79.434880086 1924.0
79.936214960 1843.0
80.437549834 2173.0
80.938884708 1850.0
81.440219583 2112.0
81.941554457 1948.0
82.442889331 2027.0
82.944224205 2483.0
83.445559080 3250.0
83.946893954 3467.0
84.448228828 2416.0
84.949563702 2171.0
85.450898577 2188.0
85.952233451 2279.0
86.453568325 2150.0
86.954903199 2063.0
87.456238074 2166.0
87.957572948 2079.0
88.458907822 2350.0
88.960242696 2253.0
89.461577571 2279.0
89.962912445 2107.0
90.464247319 2222.0
90.965582193 2554.0
91.466917067 2253.0
91.968251942 2307.0
92.469586816 2354.0
92.970921690 2303.0
93.472256564 2714.0
93.973591439 2603.0
94.474926313 2697.0
94.976261187 2616.0
95.477596061 3222.0
95.978930936 5286.0
96.480265810 12213.0
96.981600684 11647.0
97.482935558 3683.0
97.984270433 2820.0
98.485605307 3014.0
98.986940181 3045.0
99.488275055 2830.0
99.989609930 2686.0
100.490944804 2573.0
100.992279678 2806.0
101.493614552 2939.0
101.994949427 2849.0
102.496284301 2702.0
102.997619175 2609.0
103.498954049 2679.0
104.000288924 3182.0
104.501623798 2984.0
105.002958672 2856.0
105.504293546 2838.0
106.005628421 2710.0
106.506963295 3200.0
107.008298169 3045.0
107.509633043 2882.0
108.010967918 2862.0
108.512302792 2983.0
109.013637666 3488.0
109.514972540 3567.0
110.016307414 3430.0
110.517642289 3083.0
111.018977163 3133.0
111.520312037 3291.0
112.021646911 3508.0
112.522981786 3366.0
113.024316660 3004.0
113.525651534 3163.0
114.026986408 3256.0
114.528321283 3865.0
115.029656157 3582.0
115.530991031 3196.0
116.032325905 3174.0
116.533660780 3386.0
117.034995654 3918.0
117.536330528 3710.0
118.037665402 3577.0
118.539000277 3404.0
119.040335151 3415.0
119.541670025 3935.0
120.043004899 4077.0
120.544339774 4000.0
121.045674648 3712.0
121.547009522 4008.0
122.048344396 4541.0
122.549679271 5647.0
123.051014145 7012.0
123.552349019 9738.0
124.053683893 12713.0
124.555018768 8711.0
125.056353642 6312.0
125.557688516 5220.0
126.059023390 4314.0
126.560358265 4124.0
127.061693139 4221.0
127.563028013 4751.0
128.064362887 4359.0
128.565697762 4192.0
129.067032636 4038.0
129.568367510 4019.0
