20.407534410 737.0
20.808603231 681.0
21.209672051 631.0
21.610740872 643.0
22.011809692 616.0
22.412878513 681.0
22.813947334 606.0
23.215016154 664.0
23.616084975 639.0
24.017153796 652.0
24.418222616 687.0
24.819291437 713.0
25.220360257 676.0
25.621429078 687.0
26.022497899 660.0
26.423566719 630.0
26.824635540 678.0
27.225704361 718.0
27.626773181 691.0
28.027842002 664.0
28.428910822 692.0
28.829979643 672.0
29.231048464 670.0
29.632117284 720.0
30.033186105 678.0
30.434254926 698.0
30.835323746 703.0
31.236392567 666.0
31.637461387 684.0
32.038530208 664.0
32.439599029 700.0
32.840667849 668.0
33.241736670 692.0
33.642805491 745.0
34.043874311 731.0
34.444943132 658.0
34.846011952 760.0
35.247080773 781.0
35.648149594 791.0
36.049218414 759.0
36.450287235 820.0
36.851356056 787.0
37.252424876 889.0
37.653493697 1178.0
38.054562517 1697.0
38.455631338 5524.0
38.856700159 17301.0
39.257768979 7021.0
39.658837800 2159.0
40.059906621 1312.0
40.460975441 934.0
40.862044262 874.0
41.263113082 879.0
41.664181903 792.0
42.065250724 819.0
42.466319544 801.0
42.867388365 834.0
43.268457185 826.0
43.669526006 767.0
44.070594827 799.0
44.471663647 781.0
44.872732468 762.0
45.273801289 794.0
45.674870109 821.0
46.075938930 742.0
46.477007750 812.0
46.878076571 799.0
47.279145392 778.0
47.680214212 767.0
48.081283033 744.0
48.482351854 738.0
48.883420674 816.0
49.284489495 834.0
49.685558315 786.0
50.086627136 798.0
50.487695957 805.0
50.888764777 896.0
51.289833598 853.0
51.690902419 794.0
52.091971239 893.0
52.493040060 889.0
52.894108880 752.0
53.295177701 782.0
53.696246522 872.0
54.097315342 849.0
54.498384163 944.0
54.899452984 1004.0
55.300521804 1164.0
55.701590625 1795.0
56.102659445 4611.0
56.503728266 3319.0
56.904797087 1479.0
57.305865907 1204.0
57.706934728 1079.0
58.108003549 1033.0
58.509072369 1052.0
58.910141190 1104.0
59.311210010 1119.0
59.712278831 1082.0
60.113347652 1116.0
60.514416472 1125.0
60.915485293 1305.0
61.316554114 1166.0
61.717622934 1343.0
62.118691755 1124.0
62.519760575 1226.0
62.920829396 1366.0
63.321898217 1188.0
63.722967037 1570.0
64.124035858 1154.0
64.525104678 1310.0
64.926173499 1416.0
65.327242320 1440.0
65.728311140 1585.0
66.129379961 1343.0
66.530448782 1383.0
66.931517602 1431.0
67.332586423 1587.0
67.733655243 1648.0
68.134724064 1658.0
68.535792885 1610.0
68.936861705 1670.0
69.337930526 2218.0
69.738999347 2955.0
70.140068167 4689.0
70.541136988 6647.0
70.942205808 3975.0
71.343274629 2646.0
71.744343450 1934.0
72.145412270 2133.0
72.546481091 1645.0
72.947549912 1704.0
73.348618732 1819.0
73.749687553 1752.0
74.150756373 2004.0
74.551825194 1714.0
74.952894015 1695.0
75.353962835 1844.0
75.755031656 1844.0
76.156100477 1951.0
76.557169297 1825.0
76.958238118 1754.0
77.359306938 1898.0
77.760375759 1970.0
78.161444580 1857.0
78.562513400 1893.0
78.963582221 1710.0
79.364651042 1823.0
79.765719862 2151.0
80.166788683 1970.0
80.567857503 2166.0
80.968926324 1749.0
81.369995145 1985.0
81.771063965 2178.0
82.172132786 2098.0
82.573201607 2668.0
82.974270427 2828.0
83.375339248 3339.0
83.776408068 3138.0
84.177476889 2674.0
84.578545710 2428.0
84.979614530 2083.0
85.380683351 2012.0
85.781752172 2128.0
86.182820992 2184.0
86.583889813 2290.0
86.984958633 2124.0
87.386027454 1849.0
87.787096275 2058.0
88.188165095 2231.0
88.589233916 2292.0
88.990302736 2283.0
89.391371557 1873.0
89.792440378 2187.0
90.193509198 2382.0
90.594578019 2403.0
90.995646840 2310.0
91.396715660 2133.0
91.797784481 2110.0
92.198853301 2458.0
92.599922122 2517.0
93.000990943 2512.0
93.402059763 2294.0
93.803128584 2240.0
94.204197405 2609.0
94.605266225 2691.0
95.006335046 3043.0
95.407403866 3303.0
95.808472687 4007.0
96.209541508 5533.0
96.610610328 5621.0
97.011679149 3713.0
97.412747970 2834.0
97.813816790 2557.0
98.214885611 2697.0
98.615954431 2885.0
99.017023252 2796.0
99.418092073 2713.0
99.819160893 2493.0
100.220229714 2486.0
100.621298535 2936.0
101.022367355 2846.0
101.423436176 2734.0
101.824504996 2550.0
102.225573817 2479.0
102.626642638 2835.0
103.027711458 2954.0
103.428780279 2880.0
103.829849100 2596.0
104.230917920 2489.0
104.631986741 2770.0
105.033055561 2995.0
105.434124382 2991.0
105.835193203 2850.0
106.236262023 2654.0
106.637330844 2934.0
107.038399665 3226.0
107.439468485 3283.0
107.840537306 3117.0
108.241606126 3141.0
108.642674947 3437.0
109.043743768 3862.0
109.444812588 3927.0
109.845881409 3626.0
110.246950229 3302.0
110.648019050 3043.0
111.049087871 3304.0
111.450156691 3466.0
111.851225512 3229.0
112.252294333 3019.0
112.653363153 2957.0
113.054431974 3324.0
113.455500794 3578.0
113.856569615 3319.0
114.257638436 3083.0
114.658707256 3216.0
115.059776077 3336.0
115.460844898 3728.0
115.861913718 3611.0
116.262982539 3397.0
116.664051359 3238.0
117.065120180 3441.0
117.466189001 3884.0
117.867257821 3620.0
118.268326642 3459.0
118.669395463 3335.0
119.070464283 3547.0
119.471533104 3834.0
119.872601924 4133.0
120.273670745 3736.0
120.674739566 3638.0
121.075808386 3797.0
121.476877207 4293.0
121.877946028 5020.0
122.279014848 5236.0
122.680083669 5587.0
123.081152489 6688.0
123.482221310 8559.0
123.883290131 11331.0
124.284358951 8697.0
124.685427772 6719.0
125.086496593 5844.0
125.487565413 4649.0
125.888634234 4711.0
126.289703054 4421.0
126.690771875 4092.0
127.091840696 3944.0
127.492909516 4147.0
127.893978337 4587.0
128.295047158 4455.0
128.696115978 4277.0
129.097184799 3965.0
129.498253619 4078.0
129.899322440 4373.0
