10	3996
10.02	3926
10.04	3949
10.06	4052
10.08	4070
10.1	4064
10.12	4013
10.14	4075
10.16	4097
10.18	4109
10.2	4059
10.22	4059
10.24	4072
10.26	4077
10.28	4006
10.3	4088
10.32	4132
10.34	4098
10.36	4084
10.38	4074
10.4	4111
10.42	4103
10.44	4146
10.46	4150
10.48	4211
10.5	4164
10.52	4103
10.54	4097
10.56	4125
10.58	4130
10.6	4167
10.62	4095
10.64	4056
10.66	4136
10.68	4163
10.7	4069
10.72	4086
10.74	4131
10.76	4131
10.78	4127
10.8	4130
10.82	4092
10.84	4080
10.86	4164
10.88	4166
10.9	4173
10.92	4097
10.94	4119
10.96	4154
10.98	4176
11	4189
11.02	4146
11.04	4182
11.06	4177
11.08	4115
11.1	4100
11.12	4205
11.14	4262
11.16	4192
11.18	4154
11.2	4208
11.22	4209
11.24	4263
11.26	4269
11.28	4257
11.3	4210
11.32	4169
11.34	4136
11.36	4201
11.38	4199
11.4	4190
11.42	4233
11.44	4239
11.46	4224
11.48	4225
11.5	4309
11.52	4259
11.54	4318
11.56	4288
11.58	4233
11.6	4158
11.62	4193
11.64	4314
11.66	4300
11.68	4208
11.7	4256
11.72	4240
11.74	4273
11.76	4275
11.78	4273
11.8	4313
11.82	4338
11.84	4273
11.86	4313
11.88	4349
11.9	4302
11.92	4314
11.94	4328
11.96	4344
11.98	4350
12	4319
12.02	4297
12.04	4261
12.06	4342
12.08	4340
12.1	4309
12.12	4374
12.14	4353
12.16	4348
12.18	4348
12.2	4343
12.22	4348
12.24	4365
12.26	4306
12.28	4261
12.3	4377
12.32	4407
12.34	4325
12.36	4409
12.38	4386
12.4	4318
12.42	4299
12.44	4406
12.46	4311
12.48	4353
12.5	4357
12.52	4418
12.54	4399
12.56	4408
12.58	4385
12.6	4420
12.62	4466
12.64	4466
12.66	4387
12.68	4377
12.7	4452
12.72	4401
12.74	4403
12.76	4417
12.78	4436
12.8	4511
12.82	4535
12.84	4555
12.86	4466
12.88	4525
12.9	4523
12.92	4451
12.94	4435
12.96	4417
12.98	4386
13	4396
13.02	4444
13.04	4402
13.06	4389
13.08	4424
13.1	4518
13.12	4435
13.14	4443
13.16	4510
13.18	4430
13.2	4412
13.22	4375
13.24	4455
13.26	4460
13.28	4444
13.3	4495
13.32	4490
13.34	4447
13.36	4458
13.38	4458
13.4	4448
13.42	4412
13.44	4438
13.46	4425
13.48	4435
13.5	4359
13.52	4510
13.54	4485
13.56	4362
13.58	4343
13.6	4425
13.62	4438
13.64	4450
13.66	4482
13.68	4495
13.7	4505
13.72	4453
13.74	4418
13.76	4423
13.78	4478
13.8	4501
13.82	4480
13.84	4455
13.86	4497
13.88	4517
13.9	4543
13.92	4491
13.94	4547
13.96	4542
13.98	4495
14	4528
14.02	4533
14.04	4504
14.06	4536
14.08	4518
14.1	4500
14.12	4514
14.14	4559
14.16	4493
14.18	4514
14.2	4544
14.22	4502
14.24	4532
14.26	4543
14.28	4546
14.3	4521
14.32	4466
14.34	4422
14.36	4543
14.38	4495
14.4	4524
14.42	4583
14.44	4521
14.46	4546
14.48	4571
14.5	4538
14.52	4564
14.54	4589
14.56	4527
14.58	4594
14.6	4568
14.62	4489
14.64	4509
14.66	4517
14.68	4587
14.7	4628
14.72	4568
14.74	4583
14.76	4613
14.78	4591
14.8	4613
14.82	4585
14.84	4594
14.86	4617
14.88	4555
14.9	4509
14.92	4551
14.94	4585
14.96	4587
14.98	4651
15	4647
15.02	4559
15.04	4576
15.06	4565
15.08	4536
15.1	4612
15.12	4642
15.14	4643
15.16	4607
15.18	4552
15.2	4549
15.22	4587
15.24	4586
15.26	4610
15.28	4621
15.3	4553
15.32	4530
15.34	4589
15.36	4610
15.38	4640
15.4	4628
15.42	4634
15.44	4636
15.46	4538
15.48	4576
15.5	4623
15.52	4570
15.54	4584
15.56	4605
15.58	4674
15.6	4648
15.62	4606
15.64	4652
15.66	4691
15.68	4633
15.7	4547
15.72	4584
15.74	4641
15.76	4641
15.78	4700
15.8	4659
15.82	4694
15.84	4662
15.86	4642
15.88	4637
15.9	4650
15.92	4669
15.94	4649
15.96	4646
15.98	4639
16	4618
16.02	4636
16.04	4649
16.06	4707
16.08	4600
16.1	4515
16.12	4585
16.14	4642
16.16	4635
16.18	4620
16.2	4716
16.22	4831
16.24	4785
16.26	4676
16.28	4622
16.3	4658
16.32	4629
16.34	4638
16.36	4657
16.38	4670
16.4	4644
16.42	4622
16.44	4668
16.46	4615
16.48	4568
16.5	4611
16.52	4668
16.54	4669
16.56	4672
16.58	4623
16.6	4606
16.62	4708
16.64	4730
16.66	4696
16.68	4603
16.7	4573
16.72	4645
16.74	4690
16.76	4710
16.78	4722
16.8	4674
16.82	4583
16.84	4636
16.86	4686
16.88	4719
16.9	4691
16.92	4610
16.94	4624
16.96	4617
16.98	4677
17	4641
17.02	4571
17.04	4590
17.06	4699
17.08	4715
17.1	4700
17.12	4689
17.14	4620
17.16	4630
17.18	4593
17.2	4556
17.22	4593
17.24	4620
17.26	4626
17.28	4614
17.3	4550
17.32	4539
17.34	4632
17.36	4688
17.38	4699
17.4	4665
17.42	4638
17.44	4641
17.46	4596
17.48	4522
17.5	4516
17.52	4608
17.54	4591
17.56	4542
17.58	4592
17.6	4654
17.62	4600
17.64	4555
17.66	4575
17.68	4603
17.7	4631
17.72	4633
17.74	4620
17.76	4574
17.78	4549
17.8	4533
17.82	4577
17.84	4623
17.86	4619
17.88	4598
17.9	4593
17.92	4589
17.94	4554
17.96	4565
17.98	4600
18	4554
18.02	4515
18.04	4510
18.06	4583
18.08	4598
18.1	4482
18.12	4496
18.14	4540
18.16	4524
18.18	4534
18.2	4565
18.22	4550
18.24	4493
18.26	4499
18.28	4533
18.3	4522
18.32	4465
18.34	4497
18.36	4520
18.38	4476
18.4	4484
18.42	4510
18.44	4476
18.46	4431
18.48	4516
18.5	4490
18.52	4465
18.54	4500
18.56	4422
18.58	4386
18.6	4385
18.62	4405
18.64	4427
18.66	4455
18.68	4409
18.7	4347
18.72	4374
18.74	4443
18.76	4437
18.78	4399
18.8	4420
18.82	4442
18.84	4441
18.86	4445
18.88	4492
18.9	4471
18.92	4436
18.94	4393
18.96	4354
18.98	4334
19	4364
19.02	4368
19.04	4375
19.06	4405
19.08	4371
19.1	4431
19.12	4410
19.14	4340
19.16	4376
19.18	4381
19.2	4422
19.22	4407
19.24	4499
19.26	4636
19.28	4681
19.3	4821
19.32	4916
19.34	4975
19.36	5048
19.38	5134
19.4	5173
19.42	5200
19.44	5229
19.46	5101
19.48	4949
19.5	4757
19.52	4633
19.54	4607
19.56	4518
19.58	4393
19.6	4376
19.62	4401
19.64	4393
19.66	4373
19.68	4343
19.7	4326
19.72	4317
19.74	4283
19.76	4230
19.78	4221
19.8	4244
19.82	4281
19.84	4264
19.86	4276
19.88	4244
19.9	4208
19.92	4265
19.94	4202
19.96	4201
19.98	4186
20	4143
20.02	4186
20.04	4218
20.06	4162
20.08	4129
20.1	4116
20.12	4118
20.14	4141
20.16	4180
20.18	4070
20.2	4030
20.22	4131
20.24	4128
20.26	4089
20.28	4173
20.3	4191
20.32	4151
20.34	4185
20.36	4179
20.38	4179
20.4	4203
20.42	4193
20.44	4211
20.46	4251
20.48	4281
20.5	4349
20.52	4516
20.54	4578
20.56	4613
20.58	4636
20.6	4728
20.62	4662
20.64	4613
20.66	4633
20.68	4477
20.7	4312
20.72	4263
20.74	4240
20.76	4192
20.78	4193
20.8	4097
20.82	4051
20.84	4115
20.86	4124
20.88	4115
20.9	4096
20.92	4064
20.94	3930
20.96	3965
20.98	3995
21	4031
21.02	4009
21.04	3931
21.06	3960
21.08	3905
21.1	3923
21.12	3941
21.14	3931
21.16	3931
21.18	3951
21.2	3922
21.22	3895
21.24	3911
21.26	3910
21.28	3920
21.3	3886
21.32	3974
21.34	4007
21.36	3955
21.38	3963
21.4	3913
21.42	3901
21.44	3847
21.46	3864
21.48	3821
21.5	3752
21.52	3874
21.54	3835
21.56	3839
21.58	3864
21.6	3835
21.62	3889
21.64	3901
21.66	3875
21.68	3865
21.7	3932
21.72	3936
21.74	3939
21.76	3934
21.78	3954
21.8	4027
21.82	4087
21.84	4162
21.86	4162
21.88	4187
21.9	4214
21.92	4322
21.94	4362
21.96	4361
21.98	4526
22	4631
22.02	4682
22.04	4657
22.06	4640
22.08	4591
22.1	4411
22.12	4287
22.14	4218
22.16	4168
22.18	4100
22.2	4055
22.22	4038
22.24	3985
22.26	3941
22.28	3799
22.3	3744
22.32	3830
22.34	3827
22.36	3794
22.38	3718
22.4	3586
22.42	3595
22.44	3627
22.46	3645
22.48	3660
22.5	3700
22.52	3643
22.54	3494
22.56	3552
22.58	3534
22.6	3548
22.62	3523
22.64	3550
22.66	3563
22.68	3542
22.7	3603
22.72	3568
22.74	3560
22.76	3530
22.78	3524
22.8	3475
22.82	3397
22.84	3354
22.86	3471
22.88	3444
22.9	3388
22.92	3457
22.94	3498
22.96	3420
22.98	3478
23	3450
23.02	3402
23.04	3360
23.06	3311
23.08	3352
23.1	3439
23.12	3389
23.14	3329
23.16	3334
23.18	3321
23.2	3351
23.22	3324
23.24	3320
23.26	3377
23.28	3338
23.3	3279
23.32	3270
23.34	3256
23.36	3276
23.38	3269
23.4	3240
23.42	3205
23.44	3233
23.46	3187
23.48	3242
23.5	3221
23.52	3222
23.54	3296
23.56	3260
23.58	3216
23.6	3273
23.62	3244
23.64	3262
23.66	3183
23.68	3153
23.7	3184
23.72	3215
23.74	3205
23.76	3200
23.78	3227
23.8	3174
23.82	3139
23.84	3114
23.86	3197
23.88	3064
23.9	3064
23.92	3082
23.94	3148
23.96	3172
23.98	3061
24	3043
24.02	3031
24.04	3109
24.06	3066
24.08	3015
24.1	2937
24.12	3009
24.14	2985
24.16	3034
24.18	2964
24.2	2990
24.22	3060
24.24	3051
24.26	3017
24.28	2927
24.3	2951
24.32	2974
24.34	2994
24.36	2999
24.38	2853
24.4	2969
24.42	2909
24.44	2905
24.46	2857
24.48	2890
24.5	2895
24.52	2961
24.54	2883
24.56	2951
24.58	2888
24.6	2913
24.62	2892
24.64	2885
24.66	2878
24.68	2892
24.7	2846
24.72	2764
24.74	2804
24.76	2815
24.78	2954
24.8	2842
24.82	2799
24.84	2709
24.86	2761
24.88	2741
24.9	2721
24.92	2809
24.94	2773
24.96	2795
24.98	2792
25	2734
25.02	2724
25.04	2751
25.06	2759
25.08	2830
25.1	2796
25.12	2675
25.14	2749
25.16	2771
25.18	2777
25.2	2677
25.22	2639
25.24	2678
25.26	2719
25.28	2594
25.3	2598
25.32	2634
25.34	2692
25.36	2710
25.38	2676
25.4	2629
25.42	2590
25.44	2645
25.46	2750
25.48	2665
25.5	2687
25.52	2640
25.54	2632
25.56	2683
25.58	2588
25.6	2631
25.62	2688
25.64	2769
25.66	2726
25.68	2670
25.7	2621
25.72	2701
25.74	2688
25.76	2718
25.78	2593
25.8	2614
25.82	2649
25.84	2603
25.86	2540
25.88	2542
25.9	2578
25.92	2550
25.94	2503
25.96	2514
25.98	2491
26	2519
26.02	2420
26.04	2457
26.06	2475
26.08	2526
26.1	2457
26.12	2403
26.14	2426
26.16	2395
26.18	2396
26.2	2496
26.22	2448
26.24	2494
26.26	2458
26.28	2426
26.3	2378
26.32	2385
26.34	2462
26.36	2396
26.38	2473
26.4	2424
26.42	2374
26.44	2469
26.46	2528
26.48	2457
26.5	2411
26.52	2499
26.54	2473
26.56	2418
26.58	2406
26.6	2345
26.62	2373
26.64	2428
26.66	2356
26.68	2352
26.7	2418
26.72	2350
26.74	2264
26.76	2271
26.78	2324
26.8	2299
26.82	2293
26.84	2277
26.86	2279
26.88	2324
26.9	2288
26.92	2255
26.94	2337
26.96	2229
26.98	2227
27	2234
27.02	2203
27.04	2242
27.06	2222
27.08	2189
27.1	2167
27.12	2237
27.14	2233
27.16	2217
27.18	2199
27.2	2163
27.22	2150
27.24	2113
27.26	2114
27.28	2212
27.3	2167
27.32	2181
27.34	2162
27.36	2169
27.38	2129
27.4	2120
27.42	2102
27.44	2127
27.46	2141
27.48	2137
27.5	2169
27.52	2196
27.54	2134
27.56	2107
27.58	2089
27.6	2079
27.62	2088
27.64	2117
27.66	2109
27.68	2120
27.7	2107
27.72	2103
27.74	2155
27.76	2067
27.78	2081
27.8	2117
27.82	2074
27.84	2070
27.86	2121
27.88	2104
27.9	2039
27.92	2092
27.94	2044
27.96	2006
27.98	1998
28	2016
28.02	2049
28.04	2004
28.06	2018
28.08	2050
28.1	2051
28.12	2077
28.14	2066
28.16	2020
28.18	2015
28.2	2059
28.22	2048
28.24	2027
28.26	2019
28.28	2020
28.3	2017
28.32	1993
28.34	2074
28.36	2033
28.38	1993
28.4	2030
28.42	2036
28.44	2065
28.46	2078
28.48	2042
28.5	2024
28.52	1994
28.54	2018
28.56	2031
28.58	1965
28.6	1966
28.62	1979
28.64	1930
28.66	1946
28.68	2002
28.7	1998
28.72	1995
28.74	1983
28.76	1919
28.78	1877
28.8	1929
28.82	1984
28.84	1945
28.86	1902
28.88	1918
28.9	1899
28.92	1897
28.94	1921
28.96	1963
28.98	1975
29	1932
29.02	1869
29.04	1901
29.06	1905
29.08	1902
29.1	1875
29.12	1844
29.14	1861
29.16	1838
29.18	1881
29.2	1838
29.22	1813
29.24	1855
29.26	1837
29.28	1831
29.3	1869
29.32	1876
29.34	1877
29.36	1870
29.38	1875
29.4	1823
29.42	1815
29.44	1831
29.46	1816
29.48	1854
29.5	1834
29.52	1785
29.54	1788
29.56	1783
29.58	1809
29.6	1834
29.62	1860
29.64	1855
29.66	1830
29.68	1831
29.7	1851
29.72	1815
29.74	1809
29.76	1805
29.78	1735
29.8	1765
29.82	1790
29.84	1778
29.86	1793
29.88	1796
29.9	1758
29.92	1707
29.94	1744
29.96	1773
29.98	1759
30	1755
30.02	1753
30.04	1739
30.06	1774
30.08	1767
30.1	1763
30.12	1780
30.14	1770
30.16	1754
30.18	1745
30.2	1731
30.22	1721
30.24	1728
30.26	1727
30.28	1725
30.3	1684
30.32	1642
30.34	1710
30.36	1718
30.38	1721
30.4	1747
30.42	1708
30.44	1667
30.46	1676
30.48	1658
30.5	1648
30.52	1698
30.54	1692
30.56	1688
30.58	1683
30.6	1708
30.62	1704
30.64	1670
30.66	1671
30.68	1637
30.7	1611
30.72	1643
30.74	1683
30.76	1686
30.78	1679
30.8	1652
30.82	1653
30.84	1675
30.86	1670
30.88	1654
30.9	1646
30.92	1670
30.94	1671
30.96	1663
30.98	1672
31	1688
31.02	1705
31.04	1677
31.06	1631
31.08	1605
31.1	1615
31.12	1625
31.14	1621
31.16	1651
31.18	1655
31.2	1621
31.22	1598
31.24	1610
31.26	1639
31.28	1651
31.3	1647
31.32	1653
31.34	1634
31.36	1617
31.38	1651
31.4	1667
31.42	1632
31.44	1621
31.46	1641
31.48	1632
31.5	1638
31.52	1666
31.54	1682
31.56	1669
31.58	1622
31.6	1604
31.62	1634
31.64	1643
31.66	1660
31.68	1625
31.7	1629
31.72	1622
31.74	1572
31.76	1625
31.78	1637
31.8	1597
31.82	1567
31.84	1582
31.86	1565
31.88	1541
31.9	1550
31.92	1584
31.94	1569
31.96	1532
31.98	1552
32	1582
32.02	1578
32.04	1556
32.06	1526
32.08	1507
32.1	1500
32.12	1539
32.14	1545
32.16	1517
32.18	1463
32.2	1444
32.22	1465
32.24	1517
32.26	1503
32.28	1458
32.3	1470
32.32	1478
32.34	1474
32.36	1500
32.38	1489
32.4	1460
32.42	1450
32.44	1497
32.46	1479
32.48	1476
32.5	1494
32.52	1515
32.54	1519
32.56	1504
32.58	1503
32.6	1497
32.62	1466
32.64	1448
32.66	1506
32.68	1528
32.7	1485
32.72	1441
32.74	1438
32.76	1460
32.78	1494
32.8	1481
32.82	1484
32.84	1470
32.86	1499
32.88	1549
32.9	1515
32.92	1489
32.94	1528
32.96	1464
32.98	1425
33	1438
33.02	1469
33.04	1508
33.06	1496
33.08	1451
33.1	1433
33.12	1430
33.14	1430
33.16	1459
33.18	1475
33.2	1462
33.22	1438
33.24	1406
33.26	1401
33.28	1423
33.3	1421
33.32	1420
33.34	1425
33.36	1417
33.38	1434
33.4	1471
33.42	1462
33.44	1415
33.46	1405
33.48	1405
33.5	1445
33.52	1463
33.54	1374
33.56	1369
33.58	1423
33.6	1476
33.62	1468
33.64	1479
33.66	1436
33.68	1448
33.7	1419
33.72	1446
33.74	1424
33.76	1445
33.78	1478
33.8	1452
33.82	1490
33.84	1544
33.86	1563
33.88	1611
33.9	1669
33.92	1768
33.94	1945
33.96	2033
33.98	2182
34	2274
34.02	2337
34.04	2446
34.06	2411
34.08	2256
34.1	2169
34.12	2056
34.14	2003
34.16	1813
34.18	1725
34.2	1704
34.22	1606
34.24	1558
34.26	1573
34.28	1542
34.3	1508
34.32	1550
34.34	1498
34.36	1462
34.38	1485
34.4	1494
34.42	1470
34.44	1399
34.46	1394
34.48	1361
34.5	1403
34.52	1366
34.54	1353
34.56	1308
34.58	1331
34.6	1336
34.62	1317
34.64	1361
34.66	1344
34.68	1376
34.7	1342
34.72	1309
34.74	1370
34.76	1331
34.78	1353
34.8	1411
34.82	1330
34.84	1331
34.86	1345
34.88	1348
34.9	1337
34.92	1323
34.94	1350
34.96	1311
34.98	1327
35	1334
35.02	1357
35.04	1368
35.06	1349
35.08	1324
35.1	1343
35.12	1317
35.14	1297
35.16	1365
35.18	1292
35.2	1378
35.22	1333
35.24	1304
35.26	1324
35.28	1330
35.3	1328
35.32	1283
35.34	1278
35.36	1324
35.38	1253
35.4	1323
35.42	1332
35.44	1318
35.46	1292
35.48	1319
35.5	1259
35.52	1315
35.54	1313
35.56	1286
35.58	1262
35.6	1298
35.62	1330
35.64	1312
35.66	1331
35.68	1351
35.7	1256
35.72	1255
35.74	1267
35.76	1319
35.78	1313
35.8	1324
35.82	1352
35.84	1302
35.86	1318
35.88	1379
35.9	1387
35.92	1307
35.94	1337
35.96	1334
35.98	1382
36	1367
36.02	1299
36.04	1329
36.06	1335
36.08	1321
36.1	1308
36.12	1321
36.14	1307
36.16	1345
36.18	1264
36.2	1289
36.22	1351
36.24	1338
36.26	1287
36.28	1356
36.3	1378
36.32	1384
36.34	1341
36.36	1365
36.38	1365
36.4	1453
36.42	1388
36.44	1461
36.46	1451
36.48	1499
36.5	1537
36.52	1570
36.54	1574
36.56	1632
36.58	1765
36.6	1805
36.62	1878
36.64	2011
36.66	2050
36.68	2128
36.7	2206
36.72	2219
36.74	2152
36.76	2263
36.78	2181
36.8	2147
36.82	2268
36.84	2309
36.86	2386
36.88	2592
36.9	2736
36.92	3018
36.94	3267
36.96	3620
36.98	4087
37	4258
37.02	4565
37.04	4646
37.06	4607
37.08	4340
37.1	4259
37.12	3928
37.14	3620
37.16	3378
37.18	3062
37.2	2776
37.22	2536
37.24	2397
37.26	2409
37.28	2305
37.3	2141
37.32	2113
37.34	2075
37.36	1976
37.38	1833
37.4	1752
37.42	1729
37.44	1697
37.46	1625
37.48	1544
37.5	1527
37.52	1519
37.54	1514
37.56	1496
37.58	1517
37.6	1496
37.62	1395
37.64	1448
37.66	1427
37.68	1475
37.7	1448
37.72	1449
37.74	1398
37.76	1491
37.78	1454
37.8	1510
37.82	1521
37.84	1458
37.86	1477
37.88	1507
37.9	1538
37.92	1509
37.94	1475
37.96	1468
37.98	1497
38	1545
38.02	1605
38.04	1603
38.06	1602
38.08	1690
38.1	1743
38.12	1759
38.14	1756
38.16	1849
38.18	1859
38.2	1909
38.22	2022
38.24	2076
38.26	2133
38.28	2177
38.3	2209
38.32	2215
38.34	2270
38.36	2293
38.38	2287
38.4	2425
38.42	2400
38.44	2457
38.46	2502
38.48	2497
38.5	2588
38.52	2546
38.54	2648
38.56	2610
38.58	2710
38.6	2749
38.62	2863
38.64	2976
38.66	3110
38.68	3163
38.7	3312
38.72	3555
38.74	3866
38.76	4226
38.78	4779
38.8	5436
38.82	6390
38.84	7480
38.86	8752
38.88	10225
38.9	11792
38.92	13436
38.94	15149
38.96	16552
38.98	17097
39	17476
39.02	17318
39.04	16347
39.06	15467
39.08	14350
39.1	12999
39.12	11709
39.14	10431
39.16	9164
39.18	8262
39.2	7494
39.22	6864
39.24	6267
39.26	5769
39.28	5213
39.3	4822
39.32	4310
39.34	4076
39.36	3632
39.38	3411
39.4	3074
39.42	2910
39.44	2829
39.46	2698
39.48	2649
39.5	2590
39.52	2520
39.54	2447
39.56	2337
39.58	2288
39.6	2169
39.62	2052
39.64	1978
39.66	1953
39.68	1970
39.7	1877
39.72	1847
39.74	1905
39.76	1930
39.78	1839
39.8	1876
39.82	1895
39.84	1858
39.86	1888
39.88	1919
39.9	1928
39.92	1978
39.94	2137
39.96	2276
39.98	2466
40	2803
40.02	3256
40.04	3854
40.06	4542
40.08	5282
40.1	6150
40.12	6874
40.14	7472
40.16	7770
40.18	7578
40.2	7295
40.22	6805
40.24	6283
40.26	5910
40.28	5347
40.3	4811
40.32	4333
40.34	3897
40.36	3520
40.38	3271
40.4	3098
40.42	2975
40.44	2826
40.46	2686
40.48	2459
40.5	2268
40.52	2167
40.54	2096
40.56	1946
40.58	1877
40.6	1854
40.62	1853
40.64	1778
40.66	1795
40.68	1820
40.7	1896
40.72	2001
40.74	2098
40.76	2241
40.78	2499
40.8	2917
40.82	3425
40.84	4000
40.86	4743
40.88	5524
40.9	6149
40.92	6680
40.94	6969
40.96	6873
40.98	6720
41	6412
41.02	6030
41.04	5607
41.06	5131
41.08	4675
41.1	4296
41.12	3966
41.14	3589
41.16	3319
41.18	3089
41.2	2821
41.22	2550
41.24	2340
41.26	2148
41.28	1994
41.3	1907
41.32	1724
41.34	1646
41.36	1583
41.38	1459
41.4	1417
41.42	1394
41.44	1366
41.46	1349
41.48	1328
41.5	1318
41.52	1305
41.54	1302
41.56	1269
41.58	1281
41.6	1299
41.62	1262
41.64	1282
41.66	1311
41.68	1364
41.7	1318
41.72	1346
41.74	1301
41.76	1352
41.78	1383
41.8	1412
41.82	1429
41.84	1537
41.86	1595
41.88	1659
41.9	1725
41.92	1875
41.94	1998
41.96	2125
41.98	2330
42	2472
42.02	2572
42.04	2590
42.06	2562
42.08	2544
42.1	2473
42.12	2383
42.14	2272
42.16	2118
42.18	2062
42.2	2055
42.22	1970
42.24	1868
42.26	1800
42.28	1761
42.3	1701
42.32	1612
42.34	1567
42.36	1496
42.38	1472
42.4	1455
42.42	1422
42.44	1341
42.46	1297
42.48	1284
42.5	1262
42.52	1272
42.54	1296
42.56	1278
42.58	1271
42.6	1271
42.62	1247
42.64	1243
42.66	1288
42.68	1390
42.7	1399
42.72	1403
42.74	1467
42.76	1466
42.78	1548
42.8	1602
42.82	1684
42.84	1804
42.86	1907
42.88	2034
42.9	2121
42.92	2199
42.94	2328
42.96	2385
42.98	2472
43	2618
43.02	2658
43.04	2764
43.06	2843
43.08	3003
43.1	3061
43.12	3158
43.14	3365
43.16	3545
43.18	3814
43.2	4202
43.22	4462
43.24	4701
43.26	5064
43.28	5297
43.3	5393
43.32	5278
43.34	5209
43.36	5050
43.38	4809
43.4	4462
43.42	4152
43.44	3937
43.46	3679
43.48	3323
43.5	2977
43.52	2744
43.54	2549
43.56	2399
43.58	2264
43.6	2150
43.62	2023
43.64	1857
43.66	1767
43.68	1699
43.7	1670
43.72	1638
43.74	1556
43.76	1486
43.78	1422
43.8	1396
43.82	1355
43.84	1327
43.86	1303
43.88	1265
43.9	1246
43.92	1264
43.94	1325
43.96	1313
43.98	1247
44	1265
44.02	1205
44.04	1224
44.06	1229
44.08	1206
44.1	1231
44.12	1186
44.14	1183
44.16	1184
44.18	1204
44.2	1191
44.22	1196
44.24	1220
44.26	1230
44.28	1257
44.3	1262
44.32	1213
44.34	1186
44.36	1212
44.38	1269
44.4	1296
44.42	1337
44.44	1324
44.46	1249
44.48	1266
44.5	1307
44.52	1325
44.54	1348
44.56	1348
44.58	1369
44.6	1352
44.62	1375
44.64	1394
44.66	1449
44.68	1463
44.7	1449
44.72	1489
44.74	1480
44.76	1516
44.78	1553
44.8	1623
44.82	1704
44.84	1795
44.86	1983
44.88	2155
44.9	2447
44.92	2792
44.94	3091
44.96	3333
44.98	3505
45	3602
45.02	3560
45.04	3408
45.06	3335
45.08	3218
45.1	3050
45.12	2935
45.14	2829
45.16	2686
45.18	2615
45.2	2536
45.22	2490
45.24	2407
45.26	2397
45.28	2342
45.3	2362
45.32	2289
45.34	2234
45.36	2183
45.38	2113
45.4	2034
45.42	1967
45.44	1915
45.46	1822
45.48	1754
45.5	1654
45.52	1546
45.54	1478
45.56	1481
45.58	1479
45.6	1426
45.62	1413
45.64	1372
45.66	1298
45.68	1251
45.7	1249
45.72	1241
45.74	1167
45.76	1157
45.78	1129
45.8	1150
45.82	1109
45.84	1087
45.86	1047
45.88	1054
45.9	1056
45.92	1076
45.94	1068
45.96	1056
45.98	1068
46	1070
46.02	1061
46.04	1062
46.06	1044
46.08	1067
46.1	1084
46.12	1052
46.14	1074
46.16	1074
46.18	1021
46.2	1047
46.22	1065
46.24	1036
46.26	1062
46.28	1072
46.3	1055
46.32	1047
46.34	1056
46.36	1056
46.38	1055
46.4	1076
46.42	1069
46.44	1113
46.46	1093
46.48	1117
46.5	1131
46.52	1148
46.54	1194
46.56	1258
46.58	1325
46.6	1437
46.62	1538
46.64	1621
46.66	1772
46.68	1865
46.7	1893
46.72	2004
46.74	2011
46.76	1978
46.78	1983
46.8	1870
46.82	1848
46.84	1740
46.86	1722
46.88	1685
46.9	1629
46.92	1642
46.94	1593
46.96	1539
46.98	1518
47	1498
47.02	1512
47.04	1539
47.06	1524
47.08	1565
47.1	1634
47.12	1679
47.14	1820
47.16	1992
47.18	2213
47.2	2363
47.22	2532
47.24	2820
47.26	3096
47.28	3316
47.3	3454
47.32	3545
47.34	3541
47.36	3548
47.38	3593
47.4	3460
47.42	3337
47.44	3250
47.46	3095
47.48	2918
47.5	2754
47.52	2638
47.54	2511
47.56	2410
47.58	2327
47.6	2189
47.62	2154
47.64	2076
47.66	2014
47.68	1913
47.7	1830
47.72	1747
47.74	1690
47.76	1669
47.78	1620
47.8	1561
47.82	1551
47.84	1528
47.86	1461
47.88	1431
47.9	1380
47.92	1367
47.94	1379
47.96	1363
47.98	1299
48	1298
48.02	1273
48.04	1251
48.06	1215
48.08	1166
48.1	1148
48.12	1102
48.14	1102
48.16	1095
48.18	1053
48.2	998
48.22	997
48.24	978
48.26	959
48.28	941
48.3	955
48.32	977
48.34	967
48.36	896
48.38	919
48.4	925
48.42	940
48.44	944
48.46	894
48.48	863
48.5	868
48.52	877
48.54	888
48.56	908
48.58	891
48.6	874
48.62	838
48.64	857
48.66	862
48.68	899
48.7	886
48.72	854
48.74	830
48.76	858
48.78	834
48.8	848
48.82	872
48.84	846
48.86	841
48.88	839
48.9	843
48.92	871
48.94	828
48.96	824
48.98	845
49	846
49.02	836
49.04	848
49.06	848
49.08	901
49.1	861
49.12	807
49.14	804
49.16	799
49.18	805
49.2	826
49.22	841
49.24	790
49.26	785
49.28	784
49.3	820
49.32	841
49.34	850
49.36	834
49.38	811
49.4	819
49.42	802
49.44	808
49.46	828
49.48	835
49.5	801
49.52	841
49.54	838
49.56	806
49.58	827
49.6	796
49.62	807
49.64	809
49.66	775
49.68	802
49.7	815
49.72	810
49.74	827
49.76	778
49.78	759
49.8	790
49.82	764
49.84	777
49.86	776
49.88	813
49.9	812
49.92	804
49.94	812
49.96	815
49.98	791
50	813
50.02	821
50.04	835
50.06	806
50.08	788
50.1	819
50.12	792
50.14	829
50.16	785
50.18	780
50.2	784
50.22	815
50.24	821
50.26	797
50.28	812
50.3	833
50.32	813
50.34	797
50.36	812
50.38	823
50.4	808
50.42	770
50.44	821
50.46	839
50.48	838
50.5	788
50.52	815
50.54	823
50.56	845
50.58	817
50.6	805
50.62	808
50.64	807
50.66	816
50.68	847
50.7	799
50.72	804
50.74	852
50.76	861
50.78	853
50.8	890
50.82	853
50.84	844
50.86	900
50.88	873
50.9	893
50.92	922
50.94	906
50.96	935
50.98	963
51	1019
51.02	1069
51.04	1102
51.06	1211
51.08	1301
51.1	1418
51.12	1459
51.14	1588
51.16	1667
51.18	1750
51.2	1724
51.22	1731
51.24	1679
51.26	1622
51.28	1613
51.3	1509
51.32	1476
51.34	1486
51.36	1356
51.38	1338
51.4	1304
51.42	1234
51.44	1185
51.46	1135
51.48	1055
51.5	1069
51.52	1021
51.54	967
51.56	931
51.58	945
51.6	892
51.62	901
51.64	898
51.66	846
51.68	873
51.7	796
51.72	843
51.74	818
51.76	818
51.78	778
51.8	788
51.82	753
51.84	823
51.86	772
51.88	770
51.9	800
51.92	788
51.94	771
51.96	748
51.98	754
52	755
52.02	777
52.04	807
52.06	760
52.08	764
52.1	804
52.12	822
52.14	816
52.16	821
52.18	796
52.2	766
52.22	764
52.24	751
52.26	758
52.28	719
52.3	748
52.32	770
52.34	730
52.36	775
52.38	775
52.4	790
52.42	779
52.44	745
52.46	783
52.48	779
52.5	811
52.52	809
52.54	746
52.56	759
52.58	764
52.6	750
52.62	805
52.64	801
52.66	783
52.68	804
52.7	856
52.72	772
52.74	793
52.76	843
52.78	828
52.8	785
52.82	832
52.84	853
52.86	824
52.88	853
52.9	848
52.92	814
52.94	743
52.96	814
52.98	883
53	932
53.02	975
53.04	1024
53.06	1068
53.08	1128
53.1	1194
53.12	1265
53.14	1202
53.16	1143
53.18	1191
53.2	1119
53.22	1108
53.24	1028
53.26	1088
53.28	1057
53.3	1067
53.32	1021
53.34	998
53.36	889
53.38	900
53.4	840
53.42	895
53.44	885
53.46	845
53.48	818
53.5	818
53.52	808
53.54	791
53.56	757
53.58	793
53.6	801
53.62	788
53.64	764
53.66	757
53.68	811
53.7	779
53.72	757
53.74	804
53.76	769
53.78	811
53.8	793
53.82	756
53.84	743
53.86	805
53.88	756
53.9	750
53.92	752
53.94	760
53.96	734
53.98	730
54	821
54.02	763
54.04	824
54.06	781
54.08	770
54.1	781
54.12	744
54.14	791
54.16	791
54.18	837
54.2	812
54.22	820
54.24	809
54.26	831
54.28	834
54.3	834
54.32	808
54.34	861
54.36	818
54.38	878
54.4	781
54.42	823
54.44	852
54.46	868
54.48	859
54.5	799
54.52	829
54.54	807
54.56	812
54.58	840
54.6	834
54.62	859
54.64	886
54.66	867
54.68	825
54.7	865
54.72	835
54.74	847
54.76	868
54.78	815
54.8	860
54.82	849
54.84	812
54.86	860
54.88	808
54.9	796
54.92	793
54.94	783
54.96	813
54.98	814
55	794
55.02	749
55.04	764
55.06	753
55.08	755
55.1	763
55.12	787
55.14	761
55.16	787
55.18	820
55.2	804
55.22	749
55.24	798
55.26	791
55.28	749
55.3	785
55.32	735
55.34	763
55.36	777
55.38	751
55.4	766
55.42	813
55.44	754
55.46	760
55.48	751
55.5	762
55.52	769
55.54	749
55.56	749
55.58	745
55.6	741
55.62	758
55.64	758
55.66	754
55.68	799
55.7	736
55.72	750
55.74	779
55.76	754
55.78	753
55.8	737
55.82	775
55.84	767
55.86	789
55.88	770
55.9	766
55.92	823
55.94	730
55.96	784
55.98	768
56	719
56.02	763
56.04	773
56.06	769
56.08	750
56.1	794
56.12	764
56.14	790
56.16	763
56.18	729
56.2	814
56.22	798
56.24	795
56.26	824
56.28	803
56.3	822
56.32	798
56.34	817
56.36	814
56.38	758
56.4	793
56.42	818
56.44	795
56.46	775
56.48	775
56.5	838
56.52	768
56.54	804
56.56	839
56.58	794
56.6	781
56.62	747
56.64	802
56.66	763
56.68	784
56.7	731
56.72	776
56.74	766
56.76	770
56.78	717
56.8	764
56.82	782
56.84	774
56.86	724
56.88	752
56.9	737
56.92	771
56.94	797
56.96	762
56.98	744
57	706
57.02	763
57.04	733
57.06	728
57.08	753
57.1	757
57.12	768
57.14	817
57.16	780
57.18	729
57.2	744
57.22	751
57.24	782
57.26	747
57.28	745
57.3	731
57.32	778
57.34	753
57.36	766
57.38	750
57.4	749
57.42	768
57.44	758
57.46	757
57.48	755
57.5	775
57.52	755
57.54	773
57.56	791
57.58	775
57.6	807
57.62	739
57.64	790
57.66	771
57.68	738
57.7	774
57.72	765
57.74	803
57.76	810
57.78	786
57.8	764
57.82	796
57.84	772
57.86	788
57.88	791
57.9	810
57.92	861
57.94	847
57.96	832
57.98	860
58	849
58.02	888
58.04	821
58.06	898
58.08	858
58.1	879
58.12	877
58.14	901
58.16	842
58.18	822
58.2	832
58.22	848
58.24	836
58.26	835
58.28	850
58.3	839
58.32	793
58.34	767
58.36	853
58.38	813
58.4	800
58.42	796
58.44	838
58.46	770
58.48	779
58.5	794
58.52	766
58.54	756
58.56	766
58.58	780
58.6	755
58.62	789
58.64	804
58.66	775
58.68	762
58.7	753
58.72	739
58.74	749
58.76	753
58.78	758
58.8	764
58.82	761
58.84	780
58.86	753
58.88	721
58.9	760
58.92	833
58.94	816
58.96	784
58.98	845
59	796
59.02	791
59.04	808
59.06	826
59.08	810
59.1	795
59.12	819
59.14	828
59.16	838
59.18	820
59.2	834
59.22	813
59.24	800
59.26	804
59.28	784
59.3	777
59.32	790
59.34	810
59.36	792
59.38	793
59.4	780
59.42	774
59.44	785
59.46	706
59.48	803
59.5	777
59.52	761
59.54	778
59.56	758
59.58	765
59.6	785
59.62	771
59.64	822
59.66	783
59.68	793
59.7	797
59.72	797
59.74	798
59.76	822
59.78	793
59.8	806
59.82	788
59.84	743
59.86	750
59.88	780
59.9	837
59.92	833
59.94	807
59.96	768
59.98	756
60	768
60.02	802
60.04	767
60.06	783
60.08	775
60.1	780
60.12	762
60.14	777
60.16	784
60.18	763
60.2	767
60.22	763
60.24	760
60.26	785
60.28	744
60.3	769
60.32	718
60.34	740
60.36	756
60.38	736
60.4	772
60.42	774
60.44	752
60.46	771
60.48	778
60.5	817
60.52	770
60.54	748
60.56	757
60.58	807
60.6	762
60.62	729
60.64	776
60.66	758
60.68	729
60.7	741
60.72	798
60.74	775
60.76	796
60.78	804
60.8	805
60.82	847
60.84	844
60.86	894
60.88	926
60.9	976
60.92	967
60.94	953
60.96	944
60.98	982
61	948
61.02	925
61.04	919
61.06	870
61.08	911
61.1	913
61.12	906
61.14	914
61.16	940
61.18	924
61.2	864
61.22	860
61.24	849
61.26	783
61.28	823
61.3	803
61.32	827
61.34	802
61.36	818
61.38	800
61.4	751
61.42	738
61.44	771
61.46	798
61.48	766
61.5	792
61.52	787
61.54	800
61.56	774
61.58	783
61.6	773
61.62	794
61.64	739
61.66	739
61.68	776
61.7	767
61.72	768
61.74	775
61.76	810
61.78	797
61.8	789
61.82	761
61.84	781
61.86	767
61.88	778
61.9	784
61.92	765
61.94	767
61.96	795
61.98	760
62	768
62.02	786
62.04	800
62.06	784
62.08	764
62.1	772
62.12	755
62.14	753
62.16	781
62.18	799
62.2	805
62.22	801
62.24	792
62.26	784
62.28	760
62.3	806
62.32	818
62.34	798
62.36	851
62.38	829
62.4	804
62.42	828
62.44	834
62.46	840
62.48	858
62.5	902
62.52	841
62.54	897
62.56	880
62.58	879
62.6	906
62.62	936
62.64	926
62.66	936
62.68	938
62.7	1028
62.72	1068
62.74	1113
62.76	1223
62.78	1375
62.8	1476
62.82	1610
62.84	1802
62.86	2053
62.88	2231
62.9	2370
62.92	2434
62.94	2460
62.96	2409
62.98	2357
63	2192
63.02	2126
63.04	2152
63.06	2184
63.08	2087
63.1	2088
63.12	2014
63.14	1923
63.16	1785
63.18	1579
63.2	1497
63.22	1371
63.24	1257
63.26	1211
63.28	1162
63.3	1072
63.32	1040
63.34	1041
63.36	1024
63.38	982
63.4	927
63.42	888
63.44	858
63.46	849
63.48	861
63.5	873
63.52	841
63.54	826
63.56	774
63.58	776
63.6	781
63.62	793
63.64	784
63.66	760
63.68	807
63.7	841
63.72	776
63.74	744
63.76	758
63.78	759
63.8	777
63.82	782
63.84	790
63.86	765
63.88	779
63.9	791
63.92	767
63.94	816
63.96	790
63.98	770
64	787
64.02	753
64.04	764
64.06	783
64.08	808
64.1	802
64.12	776
64.14	808
64.16	818
64.18	783
64.2	799
64.22	813
64.24	815
64.26	797
64.28	792
64.3	798
64.32	841
64.34	859
64.36	839
64.38	872
64.4	858
64.42	835
64.44	856
64.46	873
64.48	854
64.5	878
64.52	908
64.54	851
64.56	854
64.58	896
64.6	892
64.62	885
64.64	909
64.66	931
64.68	919
64.7	908
64.72	893
64.74	927
64.76	935
64.78	903
64.8	931
64.82	956
64.84	972
64.86	980
64.88	1034
64.9	1099
64.92	1186
64.94	1305
64.96	1453
64.98	1608
65	1803
65.02	2068
65.04	2267
65.06	2443
65.08	2546
65.1	2538
65.12	2472
65.14	2442
65.16	2363
65.18	2329
65.2	2247
65.22	2156
65.24	2158
65.26	2155
65.28	2118
65.3	2081
65.32	1985
65.34	1883
65.36	1697
65.38	1507
65.4	1397
65.42	1290
65.44	1194
65.46	1163
65.48	1164
65.5	1131
65.52	1091
65.54	1063
65.56	1038
65.58	1025
65.6	1018
65.62	1048
65.64	1074
65.66	1068
65.68	1085
65.7	1136
65.72	1169
65.74	1199
65.76	1214
65.78	1269
65.8	1354
65.82	1354
65.84	1362
65.86	1402
65.88	1444
65.9	1454
65.92	1540
65.94	1642
65.96	1737
65.98	1806
66	1853
66.02	1863
66.04	1847
66.06	1843
66.08	1837
66.1	1765
66.12	1672
66.14	1666
66.16	1646
66.18	1587
66.2	1531
66.22	1595
66.24	1613
66.26	1496
66.28	1436
66.3	1374
66.32	1285
66.34	1226
66.36	1138
66.38	1074
66.4	1044
66.42	994
66.44	971
66.46	946
66.48	927
66.5	920
66.52	896
66.54	871
66.56	863
66.58	878
66.6	891
66.62	885
66.64	873
66.66	827
66.68	829
66.7	874
66.72	861
66.74	807
66.76	814
66.78	817
66.8	802
66.82	822
66.84	829
66.86	862
66.88	867
66.9	845
66.92	848
66.94	835
66.96	829
66.98	819
67	859
67.02	864
67.04	866
67.06	843
67.08	847
67.1	882
67.12	889
67.14	900
67.16	909
67.18	887
67.2	883
67.22	883
67.24	895
67.26	905
67.28	950
67.3	986
67.32	1000
67.34	1000
67.36	1016
67.38	1081
67.4	1137
67.42	1189
67.44	1221
67.46	1331
67.48	1452
67.5	1556
67.52	1691
67.54	1908
67.56	2103
67.58	2204
67.6	2319
67.62	2499
67.64	2591
67.66	2580
67.68	2605
67.7	2633
67.72	2685
67.74	2679
67.76	2638
67.78	2625
67.8	2602
67.82	2608
67.84	2584
67.86	2512
67.88	2472
67.9	2378
67.92	2249
67.94	2157
67.96	2129
67.98	2050
68	1936
68.02	1858
68.04	1777
68.06	1753
68.08	1777
68.1	1754
68.12	1710
68.14	1701
68.16	1765
68.18	1843
68.2	1951
68.22	2148
68.24	2313
68.26	2505
68.28	2676
68.3	2810
68.32	2951
68.34	3036
68.36	2998
68.38	2914
68.4	2855
68.42	2855
68.44	2794
68.46	2661
68.48	2646
68.5	2676
68.52	2658
68.54	2599
68.56	2481
68.58	2380
68.6	2295
68.62	2113
68.64	1925
68.66	1827
68.68	1713
68.7	1615
68.72	1564
68.74	1518
68.76	1439
68.78	1352
68.8	1310
68.82	1271
68.84	1206
68.86	1150
68.88	1121
68.9	1133
68.92	1086
68.94	1042
68.96	1067
68.98	1062
69	1029
69.02	1018
69.04	998
69.06	973
69.08	993
69.1	995
69.12	980
69.14	969
69.16	972
69.18	987
69.2	983
69.22	1010
69.24	1003
69.26	972
69.28	971
69.3	1001
69.32	993
69.34	1007
69.36	1058
69.38	1074
69.4	1089
69.42	1087
69.44	1092
69.46	1111
69.48	1151
69.5	1177
69.52	1164
69.54	1190
69.56	1251
69.58	1297
69.6	1291
69.62	1292
69.64	1315
69.66	1343
69.68	1393
69.7	1445
69.72	1471
69.74	1486
69.76	1493
69.78	1563
69.8	1634
69.82	1673
69.84	1763
69.86	1826
69.88	1903
69.9	2077
69.92	2205
69.94	2295
69.96	2334
69.98	2320
70	2355
70.02	2357
70.04	2308
70.06	2249
70.08	2240
70.1	2285
70.12	2292
70.14	2303
70.16	2285
70.18	2228
70.2	2186
70.22	2141
70.24	2132
70.26	2092
70.28	2024
70.3	2035
70.32	2073
70.34	2091
70.36	2120
70.38	2175
70.4	2252
70.42	2414
70.44	2530
70.46	2571
70.48	2731
70.5	2915
70.52	3094
70.54	3353
70.56	3546
70.58	3723
70.6	3927
70.62	3975
70.64	4029
70.66	4112
70.68	4164
70.7	4156
70.72	4149
70.74	4089
70.76	4052
70.78	3940
70.8	3814
70.82	3734
70.84	3647
70.86	3562
70.88	3421
70.9	3204
70.92	2985
70.94	2853
70.96	2746
70.98	2556
71	2377
71.02	2265
71.04	2143
71.06	1999
71.08	1909
71.1	1847
71.12	1771
71.14	1721
71.16	1646
71.18	1584
71.2	1560
71.22	1512
71.24	1458
71.26	1427
71.28	1404
71.3	1376
71.32	1371
71.34	1367
71.36	1354
71.38	1312
71.4	1318
71.42	1347
71.44	1355
71.46	1342
71.48	1334
71.5	1342
71.52	1378
71.54	1573
71.56	1774
71.58	1907
71.6	2090
71.62	2384
71.64	2724
71.66	2959
71.68	3123
71.7	3149
71.72	3031
71.74	2859
71.76	2659
71.78	2448
71.8	2387
71.82	2430
71.84	2485
71.86	2648
71.88	2743
71.9	2746
71.92	2724
71.94	2578
71.96	2319
71.98	2150
72	2085
72.02	2024
72.04	1981
72.06	1972
72.08	2028
72.1	2121
72.12	2158
72.14	2176
72.16	2178
72.18	2140
72.2	2059
72.22	2026
72.24	2038
72.26	2007
72.28	1912
72.3	1908
72.32	1927
72.34	1854
72.36	1816
72.38	1792
72.4	1764
72.42	1727
72.44	1580
72.46	1498
72.48	1487
72.5	1398
72.52	1298
72.54	1282
72.56	1251
72.58	1165
72.6	1093
72.62	1085
72.64	1053
72.66	978
72.68	1006
72.7	1016
72.72	977
72.74	964
72.76	955
72.78	924
72.8	875
72.82	884
72.84	899
72.86	864
72.88	853
72.9	847
72.92	841
72.94	855
72.96	830
72.98	830
73	842
73.02	843
73.04	846
73.06	823
73.08	812
73.1	824
73.12	828
73.14	826
73.16	811
73.18	823
73.2	827
73.22	812
73.24	819
73.26	835
73.28	842
73.3	848
73.32	849
73.34	854
73.36	847
73.38	865
73.4	892
73.42	873
73.44	906
73.46	933
73.48	932
73.5	973
73.52	992
73.54	1003
73.56	1038
73.58	1065
73.6	1105
73.62	1159
73.64	1142
73.66	1179
73.68	1210
73.7	1201
73.72	1206
73.74	1215
73.76	1239
73.78	1251
73.8	1210
73.82	1174
73.84	1168
73.86	1154
73.88	1159
73.9	1165
73.92	1137
73.94	1095
73.96	1060
73.98	1059
74	1038
74.02	985
74.04	967
74.06	976
74.08	976
74.1	953
74.12	961
74.14	947
74.16	917
74.18	922
74.2	906
74.22	916
74.24	918
74.26	911
74.28	887
74.3	873
74.32	894
74.34	916
74.36	907
74.38	878
74.4	870
74.42	843
74.44	820
74.46	803
74.48	816
74.5	825
74.52	804
74.54	795
74.56	812
74.58	809
74.6	785
74.62	800
74.64	822
74.66	805
74.68	773
74.7	774
74.72	784
74.74	773
74.76	782
74.78	769
74.8	769
74.82	779
74.84	778
74.86	779
74.88	788
74.9	773
74.92	797
74.94	776
74.96	794
74.98	797
75	794
75.02	831
75.04	817
75.06	825
75.08	818
75.1	821
75.12	833
75.14	862
75.16	869
75.18	850
75.2	811
75.22	834
75.24	834
75.26	811
75.28	805
75.3	824
75.32	846
75.34	904
75.36	900
75.38	895
75.4	899
75.42	902
75.44	954
75.46	1008
75.48	1037
75.5	1048
75.52	1062
75.54	1110
75.56	1120
75.58	1110
75.6	1099
75.62	1049
75.64	1025
75.66	1040
75.68	1069
75.7	1050
75.72	1040
75.74	1026
75.76	1027
75.78	1047
75.8	1043
75.82	966
75.84	954
75.86	950
75.88	935
75.9	894
75.92	887
75.94	925
75.96	940
75.98	887
76	865
76.02	901
76.04	922
76.06	961
76.08	952
76.1	918
76.12	908
76.14	897
76.16	913
76.18	899
76.2	890
76.22	877
76.24	911
76.26	960
76.28	964
76.3	953
76.32	963
76.34	1009
76.36	1038
76.38	1030
76.4	1045
76.42	1075
76.44	1164
76.46	1152
76.48	1131
76.5	1179
76.52	1244
76.54	1263
76.56	1229
76.58	1222
76.6	1223
76.62	1242
76.64	1219
76.66	1251
76.68	1260
76.7	1202
76.72	1195
76.74	1172
76.76	1157
76.78	1145
76.8	1100
76.82	1088
76.84	1108
76.86	1073
76.88	1044
76.9	1015
76.92	984
76.94	975
76.96	949
76.98	901
77	924
77.02	891
77.04	882
77.06	854
77.08	854
77.1	822
77.12	824
77.14	831
77.16	834
77.18	833
77.2	803
77.22	783
77.24	748
77.26	753
77.28	778
77.3	772
77.32	787
77.34	760
77.36	736
77.38	779
77.4	771
77.42	755
77.44	749
77.46	749
77.48	760
77.5	763
77.52	742
77.54	723
77.56	740
77.58	727
77.6	732
77.62	741
77.64	768
77.66	757
77.68	748
77.7	720
77.72	729
77.74	760
77.76	736
77.78	715
77.8	724
77.82	719
77.84	768
77.86	728
77.88	739
77.9	731
77.92	724
77.94	738
77.96	751
77.98	747
78	726
78.02	747
78.04	750
78.06	750
78.08	745
78.1	782
78.12	762
78.14	731
78.16	744
78.18	753
78.2	739
78.22	763
78.24	719
78.26	699
78.28	716
78.3	737
78.32	733
78.34	741
78.36	736
78.38	759
78.4	766
78.42	770
78.44	756
78.46	730
78.48	741
78.5	768
78.52	755
78.54	777
78.56	809
78.58	776
78.6	777
78.62	824
78.64	844
78.66	853
78.68	886
78.7	947
78.72	959
78.74	1039
78.76	1105
78.78	1124
78.8	1214
78.82	1269
78.84	1365
78.86	1474
78.88	1528
78.9	1537
78.92	1554
78.94	1619
78.96	1579
78.98	1616
79	1633
79.02	1544
79.04	1501
79.06	1541
79.08	1537
79.1	1487
79.12	1495
79.14	1468
79.16	1403
79.18	1400
79.2	1354
79.22	1332
79.24	1259
79.26	1217
79.28	1170
79.3	1138
79.32	1090
79.34	1082
79.36	1065
79.38	1070
79.4	1020
79.42	1033
79.44	1022
79.46	1028
79.48	983
79.5	970
79.52	962
79.54	978
79.56	929
79.58	953
79.6	957
79.62	965
79.64	961
79.66	917
79.68	913
79.7	908
79.72	881
79.74	857
79.76	930
79.78	875
79.8	837
79.82	823
79.84	810
79.86	818
79.88	833
79.9	842
79.92	795
79.94	759
79.96	759
79.98	761
80	761