30.250667440 2017.0
30.752002314 2210.0
31.253337189 2152.0
31.754672063 2231.0
32.256006937 2232.0
32.757341811 2217.0
33.258676686 2271.0
33.760011560 2399.0
34.261346434 2450.0
34.762681308 2647.0
35.264016183 2759.0
35.765351057 2612.0
36.266685931 3305.0
36.768020805 4790.0
37.269355680 13427.0
37.770690554 14087.0
38.272025428 9518.0
38.773360302 4396.0
39.274695177 3194.0
39.776030051 2939.0
40.277364925 2942.0
40.778699800 2986.0
41.280034674 2878.0
41.781369548 2958.0
42.282704422 2994.0
42.784039297 2960.0
43.285374171 2950.0
43.786709045 2966.0
44.288043919 2978.0
44.789378794 3039.0
45.290713668 3039.0
45.792048542 3001.0
46.293383416 3121.0
46.794718291 3143.0
47.296053165 3302.0
47.797388039 3433.0
48.298722914 3359.0
48.800057788 3259.0
49.301392662 3477.0
49.802727536 3414.0
50.304062411 3561.0
50.805397285 3516.0
51.306732159 3556.0
51.808067033 3601.0
52.309401908 3824.0
52.810736782 4147.0
53.312071656 5435.0
53.813406530 7155.0
54.314741405 7216.0
54.816076279 6674.0
55.317411153 5339.0
55.818746027 4348.0
56.320080902 4214.0
56.821415776 4375.0
57.322750650 4120.0
57.824085525 4139.0
58.325420399 4106.0
58.826755273 4181.0
59.328090147 4180.0
59.829425022 4168.0
60.330759896 4111.0
60.832094770 4252.0
61.333429644 4268.0
61.834764519 4230.0
62.336099393 4467.0
62.837434267 4355.0
63.338769141 4549.0
63.840104016 4472.0
64.341438890 4383.0
64.842773764 4419.0
65.344108638 4799.0
65.845443513 5023.0
66.346778387 6051.0
66.848113261 9596.0
67.349448136 11676.0
67.850783010 11631.0
68.352117884 11285.0
68.853452758 9563.0
69.354787633 7190.0
69.856122507 5973.0
70.357457381 5644.0
70.858792255 5580.0
71.360127130 5318.0
71.861462004 5132.0
72.362796878 5236.0
72.864131752 5366.0
73.365466627 5228.0
73.866801501 5335.0
74.368136375 5104.0
74.869471249 5404.0
75.370806124 5230.0
75.872140998 5304.0
76.373475872 5192.0
76.874810747 5401.0
77.376145621 5397.0
77.877480495 5492.0
78.378815369 5737.0
78.880150244 6291.0
79.381485118 6770.0
79.882819992 6955.0
80.384154866 6762.0
80.885489741 6550.0
81.386824615 6480.0
81.888159489 6238.0
82.389494363 5779.0
82.890829238 5649.0
83.392164112 5481.0
83.893498986 5565.0
84.394833861 5435.0
84.896168735 5369.0
85.397503609 5612.0
85.898838483 5487.0
86.400173358 5508.0
86.901508232 5282.0
87.402843106 5508.0
87.904177980 5483.0
88.405512855 5585.0
88.906847729 5566.0
89.408182603 5984.0
89.909517477 6363.0
90.410852352 7188.0
90.912187226 7983.0
91.413522100 7988.0
91.914856974 8221.0
92.416191849 8143.0
92.917526723 8249.0
93.418861597 7905.0
93.920196472 7668.0
94.421531346 6800.0
94.922866220 6489.0
95.424201094 6605.0
95.925535969 6255.0
96.426870843 6198.0
96.928205717 6000.0
97.429540591 5938.0
97.930875466 6119.0
98.432210340 6259.0
98.933545214 6348.0
99.434880088 6206.0
99.936214963 6416.0
100.437549837 6305.0
100.938884711 6147.0
101.440219585 6398.0
101.941554460 6456.0
102.442889334 6587.0
102.944224208 6853.0
103.445559083 6910.0
103.946893957 6976.0
104.448228831 6880.0
104.949563705 6801.0
105.450898580 6911.0
105.952233454 6677.0
106.453568328 6720.0
106.954903202 6424.0
107.456238077 6582.0
107.957572951 6531.0
108.458907825 6388.0
108.960242699 6616.0
109.461577574 6543.0
109.962912448 6916.0
110.464247322 6686.0
110.965582196 6618.0
111.466917071 6778.0
111.968251945 7016.0
112.469586819 6887.0
112.970921694 7122.0
113.472256568 7343.0
113.973591442 8306.0
114.474926316 8624.0
114.976261191 9622.0
115.477596065 9605.0
115.978930939 9657.0
116.480265813 9819.0
116.981600688 9952.0
117.482935562 9905.0
117.984270436 9943.0
118.485605310 9930.0
118.986940185 9404.0
119.488275059 9162.0
119.989609933 8657.0
120.490944808 8374.0
120.992279682 7928.0
121.493614556 7933.0
121.994949430 7768.0
122.496284305 7645.0
122.997619179 7592.0
123.498954053 7666.0
124.000288927 7577.0
124.501623802 7484.0
125.002958676 7607.0
125.504293550 7461.0
126.005628424 7734.0
126.506963299 7667.0
127.008298173 7713.0
127.509633047 7808.0
128.010967921 7635.0
128.512302796 7712.0
129.013637670 7916.0
